X-Position,Current_Reading,Time_Stamp
0,503.0,22_41_9_1685
1,502.0,22_41_9_1717
2,507.0,22_41_9_1750
3,501.0,22_41_9_1800
4,501.0,22_41_9_1832
5,506.0,22_41_9_1899
6,501.0,22_41_9_1917
7,501.0,22_41_9_1967
8,500.0,22_41_9_2002
9,501.0,22_41_9_2035
10,501.0,22_41_10_2086
11,501.0,22_41_10_2136
12,501.0,22_41_10_2171
13,501.0,22_41_10_2203
14,501.0,22_41_10_2237
15,506.0,22_41_10_2288
16,502.0,22_41_10_2337
17,502.0,22_41_10_2371
18,503.0,22_41_10_2403
19,506.0,22_41_10_2438
20,509.0,22_41_10_2487
21,503.0,22_41_10_2521
22,505.0,22_41_10_2570
23,513.0,22_41_10_2603
24,509.0,22_41_10_2653
25,508.0,22_41_10_2687
26,508.0,22_41_10_2720
27,510.0,22_41_10_2770
28,504.0,22_41_10_2802
29,505.0,22_41_10_2853
30,505.0,22_41_10_2886
31,506.0,22_41_10_2935
32,506.0,22_41_10_2969
33,503.0,22_41_10_3001
34,503.0,22_41_10_3052
35,503.0,22_41_11_3085
36,503.0,22_41_11_3134
37,503.0,22_41_11_3168
38,502.0,22_41_11_3218
39,502.0,22_41_11_3252
40,505.0,22_41_11_3302
41,504.0,22_41_11_3334
42,501.0,22_41_11_3371
43,501.0,22_41_11_3422
44,509.0,22_41_11_3455
45,501.0,22_41_11_3488
46,501.0,22_41_11_3537
47,504.0,22_41_11_3571
48,501.0,22_41_11_3621
49,502.0,22_41_11_3654
50,501.0,22_41_11_3705
51,501.0,22_41_11_3737
52,509.0,22_41_11_3772
53,503.0,22_41_11_3821
54,502.0,22_41_11_3855
55,513.0,22_41_11_3891
56,504.0,22_41_11_3941
57,504.0,22_41_11_3973
58,503.0,22_41_11_4024
59,504.0,22_41_11_4057
60,503.0,22_41_12_4106
61,503.0,22_41_12_4144
62,504.0,22_41_12_4180
63,504.0,22_41_12_4230
64,505.0,22_41_12_4279
65,503.0,22_41_12_4296
66,504.0,22_41_12_4346
67,504.0,22_41_12_4380
68,503.0,22_41_12_4415
69,503.0,22_41_12_4482
70,504.0,22_41_12_4499
71,512.0,22_41_12_4549
72,506.0,22_41_12_4584
73,503.0,22_41_12_4618
74,504.0,22_41_12_4668
75,503.0,22_41_12_4702
76,501.0,22_41_12_4750
77,501.0,22_41_12_4785
78,502.0,22_41_12_4834
79,501.0,22_41_12_4883
80,501.0,22_41_12_4920
81,504.0,22_41_12_4954
82,501.0,22_41_12_4988
83,501.0,22_41_12_5038
84,506.0,22_41_13_5071
85,506.0,22_41_13_5119
86,501.0,22_41_13_5153
87,501.0,22_41_13_5185
88,502.0,22_41_13_5237
89,507.0,22_41_13_5270
90,504.0,22_41_13_5319
91,502.0,22_41_13_5353
92,502.0,22_41_13_5403
93,503.0,22_41_13_5437
94,506.0,22_41_13_5475
95,503.0,22_41_13_5507
96,504.0,22_41_13_5557
97,507.0,22_41_13_5588
98,503.0,22_41_13_5640
99,503.0,22_41_13_5673
100,505.0,22_41_13_5722
101,503.0,22_41_13_5754
102,503.0,22_41_13_5805
103,504.0,22_41_13_5838
104,503.0,22_41_13_5872
105,503.0,22_41_13_5919
106,514.0,22_41_13_5954
107,503.0,22_41_13_6003
108,509.0,22_41_13_6037
109,505.0,22_41_14_6086
110,503.0,22_41_14_6119
111,503.0,22_41_14_6169
112,512.0,22_41_14_6217
113,504.0,22_41_14_6235
114,501.0,22_41_14_6287
115,501.0,22_41_14_6321
116,502.0,22_41_14_6356
117,502.0,22_41_14_6421
118,504.0,22_41_14_6439
119,501.0,22_41_14_6491
120,500.0,22_41_14_6527
121,501.0,22_41_14_6559
122,501.0,22_41_14_6626
123,502.0,22_41_14_6643
124,507.0,22_41_14_6692
125,502.0,22_41_14_6727
126,503.0,22_41_14_6760
127,502.0,22_41_14_6828
128,502.0,22_41_14_6845
129,503.0,22_41_14_6895
130,506.0,22_41_14_6930
131,502.0,22_41_14_6964
132,503.0,22_41_14_7014
133,504.0,22_41_14_7048
134,505.0,22_41_15_7096
135,504.0,22_41_15_7132
136,503.0,22_41_15_7165
137,504.0,22_41_15_7231
138,503.0,22_41_15_7249
139,503.0,22_41_15_7304
140,503.0,22_41_15_7339
141,503.0,22_41_15_7371
142,513.0,22_41_15_7438
143,503.0,22_41_15_7456
144,504.0,22_41_15_7506
145,504.0,22_41_15_7523
146,503.0,22_41_15_7572
147,504.0,22_41_15_7623
148,504.0,22_41_15_7673
149,502.0,22_41_15_7689
150,508.0,22_41_15_7739
151,502.0,22_41_15_7771
152,502.0,22_41_15_7822
153,502.0,22_41_15_7855
154,501.0,22_41_15_7904
155,501.0,22_41_15_7938
156,507.0,22_41_15_7988
157,501.0,22_41_15_8021
158,501.0,22_41_15_8055
159,502.0,22_41_16_8088
160,503.0,22_41_16_8138
161,502.0,22_41_16_8186
162,502.0,22_41_16_8220
163,505.0,22_41_16_8268
164,503.0,22_41_16_8301
165,503.0,22_41_16_8352
166,512.0,22_41_16_8386
167,503.0,22_41_16_8419
168,506.0,22_41_16_8469
169,503.0,22_41_16_8501
170,513.0,22_41_16_8552
171,504.0,22_41_16_8584
172,507.0,22_41_16_8634
173,506.0,22_41_16_8666
174,503.0,22_41_16_8700
175,512.0,22_41_16_8750
176,503.0,22_41_16_8783
177,506.0,22_41_16_8833
178,505.0,22_41_16_8865
179,511.0,22_41_16_8917
180,504.0,22_41_16_8950
181,508.0,22_41_16_8983
182,513.0,22_41_16_9033
183,503.0,22_41_17_9065
184,505.0,22_41_17_9116
185,505.0,22_41_17_9149
186,502.0,22_41_17_9198
187,512.0,22_41_17_9232
188,504.0,22_41_17_9300
189,501.0,22_41_17_9317
190,502.0,22_41_17_9367
191,503.0,22_41_17_9400
192,501.0,22_41_17_9435
193,500.0,22_41_17_9469
194,501.0,22_41_17_9519
195,501.0,22_41_17_9553
196,501.0,22_41_17_9601
197,502.0,22_41_17_9637
198,510.0,22_41_17_9670
199,503.0,22_41_17_9721
200,502.0,22_41_17_9754
201,502.0,22_41_17_9803
202,511.0,22_41_17_9838
203,503.0,22_41_17_9871
204,503.0,22_41_17_9939
205,509.0,22_41_17_9957
206,502.0,22_41_17_10008
207,503.0,22_41_17_10041
208,506.0,22_41_18_10076
209,514.0,22_41_18_10127
210,510.0,22_41_18_10161
211,503.0,22_41_18_10194
212,506.0,22_41_18_10243
213,504.0,22_41_18_10277
214,503.0,22_41_18_10327
215,503.0,22_41_18_10360
216,503.0,22_41_18_10410
217,503.0,22_41_18_10442
218,504.0,22_41_18_10477
219,503.0,22_41_18_10527
220,514.0,22_41_18_10561
221,505.0,22_41_18_10610
222,503.0,22_41_18_10643
223,502.0,22_41_18_10709
224,502.0,22_41_18_10727
225,502.0,22_41_18_10776
226,502.0,22_41_18_10812
227,503.0,22_41_18_10845
228,501.0,22_41_18_10896
229,500.0,22_41_18_10929
230,507.0,22_41_18_10978
231,501.0,22_41_18_11012
232,501.0,22_41_18_11045
233,502.0,22_41_19_11096
234,512.0,22_41_19_11129
235,501.0,22_41_19_11178
236,502.0,22_41_19_11212
237,505.0,22_41_19_11262
238,502.0,22_41_19_11311
239,507.0,22_41_19_11328
240,503.0,22_41_19_11378
241,503.0,22_41_19_11414
242,502.0,22_41_19_11463
243,503.0,22_41_19_11512
244,505.0,22_41_19_11529
245,504.0,22_41_19_11578
246,507.0,22_41_19_11612
247,506.0,22_41_19_11679
248,504.0,22_41_19_11695
249,504.0,22_41_19_11745
250,504.0,22_41_19_11777
251,504.0,22_41_19_11812
252,504.0,22_41_19_11861
253,503.0,22_41_19_11895
254,504.0,22_41_19_11944
255,504.0,22_41_19_11977
256,503.0,22_41_19_12027
257,505.0,22_41_19_12061
258,503.0,22_41_20_12094
259,503.0,22_41_20_12144
260,508.0,22_41_20_12176
261,501.0,22_41_20_12227
262,501.0,22_41_20_12260
263,501.0,22_41_20_12309
264,503.0,22_41_20_12343
265,503.0,22_41_20_12393
266,502.0,22_41_20_12426
267,507.0,22_41_20_12459
268,501.0,22_41_20_12508
269,508.0,22_41_20_12542
270,502.0,22_41_20_12592
271,501.0,22_41_20_12625
272,504.0,22_41_20_12675
273,503.0,22_41_20_12707
274,503.0,22_41_20_12741
275,503.0,22_41_20_12792
276,504.0,22_41_20_12825
277,504.0,22_41_20_12858
278,504.0,22_41_20_12907
279,512.0,22_41_20_12958
280,507.0,22_41_20_12991
281,504.0,22_41_20_13024
282,505.0,22_41_21_13073
283,506.0,22_41_21_13105
284,503.0,22_41_21_13154
285,503.0,22_41_21_13186
286,503.0,22_41_21_13238
287,503.0,22_41_21_13270
288,503.0,22_41_21_13320
289,503.0,22_41_21_13352
290,503.0,22_41_21_13387
291,503.0,22_41_21_13436
292,506.0,22_41_21_13470
293,503.0,22_41_21_13519
294,503.0,22_41_21_13552
295,503.0,22_41_21_13602
296,501.0,22_41_21_13636
297,501.0,22_41_21_13669
298,501.0,22_41_21_13719
299,511.0,22_41_21_13752
300,501.0,22_41_21_13803
301,500.0,22_41_21_13851
302,502.0,22_41_21_13884
303,503.0,22_41_21_13916
304,501.0,22_41_21_13967
305,501.0,22_41_21_14000
306,502.0,22_41_21_14049
307,501.0,22_41_22_14083
308,502.0,22_41_22_14115
309,511.0,22_41_22_14166
310,504.0,22_41_22_14203
311,502.0,22_41_22_14236
312,503.0,22_41_22_14285
313,506.0,22_41_22_14319
314,509.0,22_41_22_14369
315,503.0,22_41_22_14402
316,504.0,22_41_22_14451
317,507.0,22_41_22_14483
318,503.0,22_41_22_14534
319,503.0,22_41_22_14567
320,504.0,22_41_22_14600
321,503.0,22_41_22_14649
322,512.0,22_41_22_14683
323,509.0,22_41_22_14720
324,513.0,22_41_22_14770
325,504.0,22_41_22_14804
326,504.0,22_41_22_14852
327,503.0,22_41_22_14886
328,504.0,22_41_22_14934
329,505.0,22_41_22_14968
330,502.0,22_41_22_15016
331,502.0,22_41_22_15050
332,512.0,22_41_23_15100
333,501.0,22_41_23_15134
334,501.0,22_41_23_15168
335,502.0,22_41_23_15218
336,508.0,22_41_23_15251
337,501.0,22_41_23_15302
338,500.0,22_41_23_15335
339,504.0,22_41_23_15368
340,501.0,22_41_23_15418
341,501.0,22_41_23_15450
342,501.0,22_41_23_15502
343,501.0,22_41_23_15538
344,502.0,22_41_23_15588
345,502.0,22_41_23_15620
346,502.0,22_41_23_15654
347,503.0,22_41_23_15705
348,502.0,22_41_23_15738
349,504.0,22_41_23_15787
350,503.0,22_41_23_15819
351,503.0,22_41_23_15852
352,503.0,22_41_23_15903
353,503.0,22_41_23_15936
354,504.0,22_41_23_15985
355,503.0,22_41_23_16019
356,504.0,22_41_24_16069
357,507.0,22_41_24_16102
358,514.0,22_41_24_16136
359,503.0,22_41_24_16184
360,504.0,22_41_24_16219
361,503.0,22_41_24_16269
362,505.0,22_41_24_16304
363,504.0,22_41_24_16337
364,507.0,22_41_24_16386
365,502.0,22_41_24_16420
366,502.0,22_41_24_16470
367,512.0,22_41_24_16504
368,503.0,22_41_24_16554
369,502.0,22_41_24_16570
370,502.0,22_41_24_16620
371,504.0,22_41_24_16670
372,501.0,22_41_24_16702
373,501.0,22_41_24_16753
374,501.0,22_41_24_16786
375,502.0,22_41_24_16819
376,501.0,22_41_24_16872
377,501.0,22_41_24_16906
378,502.0,22_41_24_16956
379,502.0,22_41_24_16989
380,502.0,22_41_24_17039
381,502.0,22_41_25_17072
382,502.0,22_41_25_17106
383,503.0,22_41_25_17156
384,513.0,22_41_25_17189
385,502.0,22_41_25_17239
386,503.0,22_41_25_17271
387,508.0,22_41_25_17322
388,506.0,22_41_25_17355
389,503.0,22_41_25_17389
390,503.0,22_41_25_17438
391,503.0,22_41_25_17471
392,504.0,22_41_25_17521
393,509.0,22_41_25_17555
394,504.0,22_41_25_17588
395,503.0,22_41_25_17638
396,503.0,22_41_25_17670
397,503.0,22_41_25_17721
398,503.0,22_41_25_17754
399,504.0,22_41_25_17803
400,503.0,22_41_25_17836
401,502.0,22_41_25_17887
402,508.0,22_41_25_17920
403,507.0,22_41_25_17953
404,501.0,22_41_25_18002
405,502.0,22_41_25_18036
406,502.0,22_41_26_18084
407,501.0,22_41_26_18116
408,501.0,22_41_26_18165
409,505.0,22_41_26_18199
410,502.0,22_41_26_18249
411,501.0,22_41_26_18282
412,501.0,22_41_26_18331
413,502.0,22_41_26_18365
414,501.0,22_41_26_18415
415,502.0,22_41_26_18448
416,503.0,22_41_26_18481
417,505.0,22_41_26_18531
418,502.0,22_41_26_18565
419,504.0,22_41_26_18615
420,502.0,22_41_26_18648
421,513.0,22_41_26_18681
422,503.0,22_41_26_18732
423,504.0,22_41_26_18764
424,504.0,22_41_26_18814
425,511.0,22_41_26_18846
426,504.0,22_41_26_18897
427,510.0,22_41_26_18930
428,508.0,22_41_26_18964
429,504.0,22_41_26_19013
430,505.0,22_41_26_19046
431,503.0,22_41_27_19113
432,503.0,22_41_27_19131
433,503.0,22_41_27_19180
434,503.0,22_41_27_19214
435,503.0,22_41_27_19247
436,502.0,22_41_27_19315
437,501.0,22_41_27_19333
438,502.0,22_41_27_19384
439,502.0,22_41_27_19419
440,501.0,22_41_27_19452
441,500.0,22_41_27_19503
442,502.0,22_41_27_19551
443,505.0,22_41_27_19586
444,502.0,22_41_27_19619
445,502.0,22_41_27_19653
446,508.0,22_41_27_19704
447,509.0,22_41_27_19753
448,502.0,22_41_27_19788
449,502.0,22_41_27_19821
450,505.0,22_41_27_19856
451,509.0,22_41_27_19905
452,504.0,22_41_27_19954
453,508.0,22_41_27_19989
454,505.0,22_41_27_20023
455,503.0,22_41_27_20059
456,504.0,22_41_28_20110
457,503.0,22_41_28_20159
458,503.0,22_41_28_20176
459,503.0,22_41_28_20227
460,503.0,22_41_28_20263
461,512.0,22_41_28_20296
462,505.0,22_41_28_20347
463,508.0,22_41_28_20380
464,503.0,22_41_28_20429
465,504.0,22_41_28_20463
466,504.0,22_41_28_20514
467,503.0,22_41_28_20547
468,503.0,22_41_28_20580
469,505.0,22_41_28_20629
470,504.0,22_41_28_20663
471,502.0,22_41_28_20713
472,505.0,22_41_28_20762
473,501.0,22_41_28_20797
474,501.0,22_41_28_20830
475,503.0,22_41_28_20866
476,500.0,22_41_28_20916
477,501.0,22_41_28_20965
478,509.0,22_41_28_20998
479,507.0,22_41_28_21033
480,501.0,22_41_29_21066
481,502.0,22_41_29_21135
482,503.0,22_41_29_21153
483,502.0,22_41_29_21203
484,502.0,22_41_29_21237
485,503.0,22_41_29_21270
486,502.0,22_41_29_21337
487,502.0,22_41_29_21355
488,503.0,22_41_29_21404
489,502.0,22_41_29_21438
490,503.0,22_41_29_21473
491,503.0,22_41_29_21524
492,505.0,22_41_29_21573
493,507.0,22_41_29_21590
494,504.0,22_41_29_21642
495,511.0,22_41_29_21677
496,504.0,22_41_29_21728
497,507.0,22_41_29_21777
498,510.0,22_41_29_21795
499,503.0,22_41_29_21844
500,503.0,22_41_29_21879
501,503.0,22_41_29_21928
502,505.0,22_41_29_21962
503,510.0,22_41_29_22010
504,503.0,22_41_29_22043
505,503.0,22_41_30_22076
506,506.0,22_41_30_22127
507,501.0,22_41_30_22160
508,501.0,22_41_30_22209
509,502.0,22_41_30_22243
510,504.0,22_41_30_22293
511,501.0,22_41_30_22326
512,501.0,22_41_30_22376
513,500.0,22_41_30_22408
514,501.0,22_41_30_22442
515,501.0,22_41_30_22492
516,501.0,22_41_30_22525
517,501.0,22_41_30_22575
518,502.0,22_41_30_22607
519,502.0,22_41_30_22641
520,502.0,22_41_30_22692
521,503.0,22_41_30_22725
522,505.0,22_41_30_22775
523,502.0,22_41_30_22807
524,503.0,22_41_30_22858
525,503.0,22_41_30_22891
526,504.0,22_41_30_22924
527,503.0,22_41_30_22974
528,504.0,22_41_30_23006
529,509.0,22_41_30_23057
530,504.0,22_41_31_23090
531,504.0,22_41_31_23125
532,505.0,22_41_31_23176
533,503.0,22_41_31_23211
534,503.0,22_41_31_23260
535,503.0,22_41_31_23294
536,504.0,22_41_31_23343
537,504.0,22_41_31_23376
538,508.0,22_41_31_23410
539,503.0,22_41_31_23460
540,502.0,22_41_31_23493
541,502.0,22_41_31_23543
542,505.0,22_41_31_23575
543,507.0,22_41_31_23626
544,501.0,22_41_31_23659
545,502.0,22_41_31_23692
546,501.0,22_41_31_23744
547,500.0,22_41_31_23775
548,506.0,22_41_31_23826
549,501.0,22_41_31_23859
550,501.0,22_41_31_23893
551,501.0,22_41_31_23943
552,501.0,22_41_31_23975
553,501.0,22_41_31_24026
554,502.0,22_41_31_24059
555,508.0,22_41_32_24108
556,503.0,22_41_32_24142
557,507.0,22_41_32_24193
558,505.0,22_41_32_24226
559,503.0,22_41_32_24259
560,507.0,22_41_32_24308
561,503.0,22_41_32_24342
562,503.0,22_41_32_24392
563,504.0,22_41_32_24425
564,503.0,22_41_32_24459
565,503.0,22_41_32_24507
566,504.0,22_41_32_24542
567,504.0,22_41_32_24592
568,504.0,22_41_32_24626
569,504.0,22_41_32_24675
570,503.0,22_41_32_24708
571,503.0,22_41_32_24742
572,503.0,22_41_32_24793
573,511.0,22_41_32_24826
574,505.0,22_41_32_24876
575,502.0,22_41_32_24908
576,504.0,22_41_32_24960
577,503.0,22_41_32_24993
578,501.0,22_41_32_25026
579,511.0,22_41_33_25076
580,501.0,22_41_33_25108
581,501.0,22_41_33_25160
582,501.0,22_41_33_25193
583,502.0,22_41_33_25226
584,502.0,22_41_33_25276
585,501.0,22_41_33_25308
586,502.0,22_41_33_25360
587,502.0,22_41_33_25411
588,506.0,22_41_33_25443
589,502.0,22_41_33_25476
590,502.0,22_41_33_25526
591,503.0,22_41_33_25560
592,502.0,22_41_33_25593
593,502.0,22_41_33_25642
594,503.0,22_41_33_25676
595,503.0,22_41_33_25726
596,513.0,22_41_33_25759
597,503.0,22_41_33_25793
598,503.0,22_41_33_25841
599,505.0,22_41_33_25876
600,510.0,22_41_33_25925
601,505.0,22_41_33_25959
602,503.0,22_41_33_26008
603,505.0,22_41_33_26041
604,507.0,22_41_34_26075
605,505.0,22_41_34_26126
606,504.0,22_41_34_26159
607,505.0,22_41_34_26209
608,503.0,22_41_34_26241
609,503.0,22_41_34_26292
610,503.0,22_41_34_26325
611,502.0,22_41_34_26358
612,502.0,22_41_34_26408
613,503.0,22_41_34_26440
614,503.0,22_41_34_26491
615,501.0,22_41_34_26524
616,501.0,22_41_34_26573
617,501.0,22_41_34_26607
618,500.0,22_41_34_26657
619,502.0,22_41_34_26690
620,504.0,22_41_34_26723
621,502.0,22_41_34_26772
622,503.0,22_41_34_26806
623,502.0,22_41_34_26856
624,502.0,22_41_34_26889
625,503.0,22_41_34_26939
626,502.0,22_41_34_26971
627,503.0,22_41_34_27005
628,504.0,22_41_34_27053
629,503.0,22_41_35_27086
630,503.0,22_41_35_27134
631,503.0,22_41_35_27168
632,503.0,22_41_35_27218
633,503.0,22_41_35_27251
634,503.0,22_41_35_27299
635,504.0,22_41_35_27335
636,504.0,22_41_35_27369
637,503.0,22_41_35_27419
638,504.0,22_41_35_27453
639,503.0,22_41_35_27501
640,503.0,22_41_35_27536
641,503.0,22_41_35_27586
642,503.0,22_41_35_27620
643,508.0,22_41_35_27653
644,505.0,22_41_35_27702
645,502.0,22_41_35_27736
646,503.0,22_41_35_27787
647,502.0,22_41_35_27820
648,503.0,22_41_35_27870
649,501.0,22_41_35_27902
650,501.0,22_41_35_27935
651,505.0,22_41_35_27986
652,501.0,22_41_35_28035
653,502.0,22_41_36_28070
654,505.0,22_41_36_28103
655,500.0,22_41_36_28154
656,501.0,22_41_36_28204
657,501.0,22_41_36_28220
658,504.0,22_41_36_28270
659,502.0,22_41_36_28302
660,502.0,22_41_36_28353
661,505.0,22_41_36_28403
662,510.0,22_41_36_28419
663,511.0,22_41_36_28469
664,503.0,22_41_36_28501
665,502.0,22_41_36_28552
666,503.0,22_41_36_28585
667,503.0,22_41_36_28635
668,503.0,22_41_36_28668
669,504.0,22_41_36_28702
670,503.0,22_41_36_28750
671,503.0,22_41_36_28785
672,503.0,22_41_36_28834
673,503.0,22_41_36_28868
674,503.0,22_41_36_28917
675,503.0,22_41_36_28950
676,505.0,22_41_36_28984
677,514.0,22_41_36_29035
678,506.0,22_41_37_29068
679,504.0,22_41_37_29117
680,503.0,22_41_37_29150
681,503.0,22_41_37_29201
682,503.0,22_41_37_29234
683,501.0,22_41_37_29267
684,501.0,22_41_37_29317
685,501.0,22_41_37_29350
686,501.0,22_41_37_29401
687,502.0,22_41_37_29434
688,502.0,22_41_37_29483
689,501.0,22_41_37_29517
690,501.0,22_41_37_29567
691,501.0,22_41_37_29601
692,507.0,22_41_37_29634
693,501.0,22_41_37_29683
694,502.0,22_41_37_29717
695,502.0,22_41_37_29767
696,506.0,22_41_37_29800
697,505.0,22_41_37_29833
698,503.0,22_41_37_29882
699,503.0,22_41_37_29916
700,503.0,22_41_37_29966
701,503.0,22_41_37_29999
702,503.0,22_41_37_30049
703,503.0,22_41_38_30081
704,504.0,22_41_38_30116
705,506.0,22_41_38_30169
706,512.0,22_41_38_30203
707,504.0,22_41_38_30237
708,511.0,22_41_38_30287
709,504.0,22_41_38_30319
710,503.0,22_41_38_30370
711,504.0,22_41_38_30403
712,511.0,22_41_38_30452
713,505.0,22_41_38_30485
714,503.0,22_41_38_30536
715,503.0,22_41_38_30569
716,502.0,22_41_38_30602
717,502.0,22_41_38_30651
718,502.0,22_41_38_30684
719,502.0,22_41_38_30735
720,502.0,22_41_38_30769
721,501.0,22_41_38_30819
722,501.0,22_41_38_30851
723,508.0,22_41_38_30885
724,500.0,22_41_38_30936
725,501.0,22_41_38_30969
726,502.0,22_41_38_31019
727,502.0,22_41_38_31053
728,504.0,22_41_39_31094
729,502.0,22_41_39_31128
730,502.0,22_41_39_31178
731,502.0,22_41_39_31212
732,502.0,22_41_39_31261
733,502.0,22_41_39_31296
734,503.0,22_41_39_31328
735,503.0,22_41_39_31379
736,504.0,22_41_39_31412
737,503.0,22_41_39_31461
738,503.0,22_41_39_31495
739,506.0,22_41_39_31545
740,504.0,22_41_39_31593
741,514.0,22_41_39_31611
742,504.0,22_41_39_31661
743,503.0,22_41_39_31696
744,504.0,22_41_39_31747
745,503.0,22_41_39_31780
746,504.0,22_41_39_31813
747,505.0,22_41_39_31862
748,504.0,22_41_39_31895
749,503.0,22_41_39_31945
750,503.0,22_41_39_31980
751,502.0,22_41_39_32031
752,503.0,22_41_40_32080
753,504.0,22_41_40_32097
754,502.0,22_41_40_32146
755,501.0,22_41_40_32180
756,501.0,22_41_40_32230
757,503.0,22_41_40_32263
758,500.0,22_41_40_32312
759,510.0,22_41_40_32345
760,507.0,22_41_40_32396
761,501.0,22_41_40_32429
762,502.0,22_41_40_32463
763,501.0,22_41_40_32512
764,502.0,22_41_40_32545
765,502.0,22_41_40_32595
766,502.0,22_41_40_32629
767,502.0,22_41_40_32662
768,502.0,22_41_40_32712
769,509.0,22_41_40_32744
770,503.0,22_41_40_32795
771,504.0,22_41_40_32828
772,505.0,22_41_40_32877
773,504.0,22_41_40_32911
774,506.0,22_41_40_32961
775,504.0,22_41_40_32994
776,503.0,22_41_40_33027
777,504.0,22_41_41_33076
778,505.0,22_41_41_33109
779,504.0,22_41_41_33160
780,503.0,22_41_41_33193
781,503.0,22_41_41_33226
782,507.0,22_41_41_33275
783,503.0,22_41_41_33308
784,505.0,22_41_41_33359
785,503.0,22_41_41_33392
786,502.0,22_41_41_33441
787,508.0,22_41_41_33474
788,502.0,22_41_41_33525
789,501.0,22_41_41_33558
790,500.0,22_41_41_33591
791,502.0,22_41_41_33641
792,502.0,22_41_41_33673
793,500.0,22_41_41_33724
794,500.0,22_41_41_33757
795,501.0,22_41_41_33806
796,501.0,22_41_41_33840
797,502.0,22_41_41_33890
798,502.0,22_41_41_33923
799,504.0,22_41_41_33957
800,504.0,22_41_41_34005
801,513.0,22_41_41_34038
802,509.0,22_41_42_34086
803,503.0,22_41_42_34119
804,502.0,22_41_42_34169
805,502.0,22_41_42_34202
806,508.0,22_41_42_34251
807,506.0,22_41_42_34284
808,503.0,22_41_42_34334
809,504.0,22_41_42_34368
810,511.0,22_41_42_34401
811,513.0,22_41_42_34449
812,505.0,22_41_42_34498
813,514.0,22_41_42_34530
814,506.0,22_41_42_34564
815,503.0,22_41_42_34614
816,504.0,22_41_42_34647
817,504.0,22_41_42_34697
818,503.0,22_41_42_34729
819,504.0,22_41_42_34763
820,503.0,22_41_42_34813
821,512.0,22_41_42_34846
822,502.0,22_41_42_34895
823,502.0,22_41_42_34928
824,503.0,22_41_42_34979
825,508.0,22_41_42_35012
826,501.0,22_41_42_35061
827,502.0,22_41_43_35094
828,501.0,22_41_43_35127
829,501.0,22_41_43_35178
830,501.0,22_41_43_35211
831,502.0,22_41_43_35261
832,506.0,22_41_43_35295
833,504.0,22_41_43_35345
834,501.0,22_41_43_35378
835,504.0,22_41_43_35411
836,503.0,22_41_43_35460
837,502.0,22_41_43_35494
838,503.0,22_41_43_35544
839,503.0,22_41_43_35577
840,503.0,22_41_43_35627
841,504.0,22_41_43_35660
842,503.0,22_41_43_35695
843,503.0,22_41_43_35744
844,503.0,22_41_43_35778
845,503.0,22_41_43_35827
846,503.0,22_41_43_35861
847,504.0,22_41_43_35895
848,503.0,22_41_43_35945
849,503.0,22_41_43_35978
850,506.0,22_41_43_36028
851,514.0,22_41_43_36060
852,510.0,22_41_44_36111
853,503.0,22_41_44_36144
854,508.0,22_41_44_36177
855,503.0,22_41_44_36226
856,503.0,22_41_44_36259
857,502.0,22_41_44_36308
858,506.0,22_41_44_36340
859,502.0,22_41_44_36391
860,501.0,22_41_44_36423
861,508.0,22_41_44_36473
862,502.0,22_41_44_36505
863,500.0,22_41_44_36556
864,500.0,22_41_44_36588
865,501.0,22_41_44_36638
866,501.0,22_41_44_36671
867,511.0,22_41_44_36705
868,501.0,22_41_44_36756
869,503.0,22_41_44_36789
870,505.0,22_41_44_36821
871,504.0,22_41_44_36869
872,509.0,22_41_44_36906
873,503.0,22_41_44_36957
874,503.0,22_41_44_36990
875,502.0,22_41_44_37040
876,503.0,22_41_45_37072
877,503.0,22_41_45_37107
878,503.0,22_41_45_37157
879,504.0,22_41_45_37191
880,503.0,22_41_45_37240
881,503.0,22_41_45_37273
882,503.0,22_41_45_37323
883,503.0,22_41_45_37357
884,504.0,22_41_45_37390
885,503.0,22_41_45_37440
886,505.0,22_41_45_37473
887,504.0,22_41_45_37524
888,504.0,22_41_45_37557
889,504.0,22_41_45_37590
890,503.0,22_41_45_37640
891,503.0,22_41_45_37673
892,505.0,22_41_45_37724
893,504.0,22_41_45_37757
894,502.0,22_41_45_37807
895,502.0,22_41_45_37841
896,503.0,22_41_45_37891
897,502.0,22_41_45_37924
898,504.0,22_41_45_37957
899,502.0,22_41_45_38006
900,501.0,22_41_45_38041
901,502.0,22_41_46_38090
902,502.0,22_41_46_38125
903,501.0,22_41_46_38173
904,502.0,22_41_46_38207
905,501.0,22_41_46_38239
906,501.0,22_41_46_38290
907,501.0,22_41_46_38323
908,502.0,22_41_46_38373
909,502.0,22_41_46_38407
910,501.0,22_41_46_38441
911,502.0,22_41_46_38490
912,509.0,22_41_46_38524
913,506.0,22_41_46_38573
914,503.0,22_41_46_38606
915,504.0,22_41_46_38657
916,505.0,22_41_46_38691
917,503.0,22_41_46_38724
918,503.0,22_41_46_38774
919,504.0,22_41_46_38806
920,504.0,22_41_46_38857
921,503.0,22_41_46_38890
922,503.0,22_41_46_38939
923,504.0,22_41_46_38975
924,503.0,22_41_46_39009
925,503.0,22_41_46_39059
926,504.0,22_41_47_39092
927,503.0,22_41_47_39141
928,503.0,22_41_47_39177
929,503.0,22_41_47_39210
930,503.0,22_41_47_39261
931,502.0,22_41_47_39294
932,501.0,22_41_47_39343
933,511.0,22_41_47_39376
934,507.0,22_41_47_39409
935,501.0,22_41_47_39461
936,500.0,22_41_47_39494
937,506.0,22_41_47_39543
938,501.0,22_41_47_39576
939,501.0,22_41_47_39627
940,509.0,22_41_47_39661
941,501.0,22_41_47_39695
942,501.0,22_41_47_39743
943,504.0,22_41_47_39778
944,513.0,22_41_47_39827
945,502.0,22_41_47_39861
946,509.0,22_41_47_39910
947,503.0,22_41_47_39943
948,509.0,22_41_47_39977
949,504.0,22_41_47_40027
950,506.0,22_41_47_40060
951,505.0,22_41_48_40110
952,504.0,22_41_48_40143
953,503.0,22_41_48_40178
954,503.0,22_41_48_40229
955,503.0,22_41_48_40263
956,504.0,22_41_48_40313
957,503.0,22_41_48_40345
958,503.0,22_41_48_40379
959,503.0,22_41_48_40429
960,504.0,22_41_48_40462
961,504.0,22_41_48_40512
962,503.0,22_41_48_40544
963,504.0,22_41_48_40596
964,503.0,22_41_48_40629
965,503.0,22_41_48_40663
966,503.0,22_41_48_40712
967,503.0,22_41_48_40745
968,501.0,22_41_48_40796
969,501.0,22_41_48_40829
970,501.0,22_41_48_40878
971,504.0,22_41_48_40911
972,500.0,22_41_48_40962
973,501.0,22_41_48_41011
974,505.0,22_41_48_41029
975,501.0,22_41_49_41078
976,501.0,22_41_49_41114
977,505.0,22_41_49_41148
978,501.0,22_41_49_41214
979,504.0,22_41_49_41232
980,506.0,22_41_49_41282
981,502.0,22_41_49_41316
982,502.0,22_41_49_41349
983,511.0,22_41_49_41417
984,502.0,22_41_49_41435
985,503.0,22_41_49_41485
986,503.0,22_41_49_41520
987,511.0,22_41_49_41553
988,503.0,22_41_49_41604
989,503.0,22_41_49_41637
990,505.0,22_41_49_41671
991,510.0,22_41_49_41721
992,504.0,22_41_49_41753
993,503.0,22_41_49_41804
994,506.0,22_41_49_41837
995,504.0,22_41_49_41886
996,504.0,22_41_49_41920
997,504.0,22_41_49_41954
998,504.0,22_41_49_42004
999,503.0,22_41_49_42038
1000,503.0,22_41_50_42086
1001,504.0,22_41_50_42121
1002,504.0,22_41_50_42170
1003,502.0,22_41_50_42219
1004,502.0,22_41_50_42254
1005,501.0,22_41_50_42288
1006,501.0,22_41_50_42322
1007,501.0,22_41_50_42373
1008,501.0,22_41_50_42406
1009,501.0,22_41_50_42456
1010,509.0,22_41_50_42488
1011,501.0,22_41_50_42522
1012,501.0,22_41_50_42573
1013,501.0,22_41_50_42607
1014,503.0,22_41_50_42655
1015,503.0,22_41_50_42691
1016,502.0,22_41_50_42724
1017,504.0,22_41_50_42775
1018,513.0,22_41_50_42808
1019,503.0,22_41_50_42858
1020,502.0,22_41_50_42894
1021,502.0,22_41_50_42927
1022,503.0,22_41_50_42978
1023,504.0,22_41_50_43028
1024,503.0,22_41_51_43063
1025,504.0,22_41_51_43095
1026,512.0,22_41_51_43131
1027,504.0,22_41_51_43180
1028,514.0,22_41_51_43229
1029,505.0,22_41_51_43247
1030,504.0,22_41_51_43296
1031,504.0,22_41_51_43330
1032,504.0,22_41_51_43381
1033,503.0,22_41_51_43430
1034,504.0,22_41_51_43448
1035,503.0,22_41_51_43498
1036,507.0,22_41_51_43533
1037,506.0,22_41_51_43600
1038,503.0,22_41_51_43617
1039,502.0,22_41_51_43667
1040,506.0,22_41_51_43703
1041,501.0,22_41_51_43737
1042,501.0,22_41_51_43789
1043,505.0,22_41_51_43822
1044,501.0,22_41_51_43855
1045,502.0,22_41_51_43904
1046,502.0,22_41_51_43937
1047,501.0,22_41_51_43989
1048,501.0,22_41_51_44022
1049,501.0,22_41_52_44071
1050,505.0,22_41_52_44106
1051,502.0,22_41_52_44138
1052,502.0,22_41_52_44189
1053,510.0,22_41_52_44223
1054,503.0,22_41_52_44271
1055,502.0,22_41_52_44306
1056,502.0,22_41_52_44339
1057,502.0,22_41_52_44391
1058,513.0,22_41_52_44423
1059,506.0,22_41_52_44473
1060,510.0,22_41_52_44506
1061,506.0,22_41_52_44557
1062,509.0,22_41_52_44590
1063,506.0,22_41_52_44623
1064,509.0,22_41_52_44673
1065,504.0,22_41_52_44706
1066,504.0,22_41_52_44755
1067,503.0,22_41_52_44788
1068,503.0,22_41_52_44838
1069,503.0,22_41_52_44873
1070,503.0,22_41_52_44907
1071,510.0,22_41_52_44959
1072,508.0,22_41_52_44992
1073,503.0,22_41_52_45025
1074,503.0,22_41_53_45075
1075,505.0,22_41_53_45108
1076,502.0,22_41_53_45159
1077,501.0,22_41_53_45192
1078,510.0,22_41_53_45242
1079,502.0,22_41_53_45276
1080,501.0,22_41_53_45327
1081,500.0,22_41_53_45360
1082,500.0,22_41_53_45393
1083,500.0,22_41_53_45442
1084,501.0,22_41_53_45475
1085,509.0,22_41_53_45525
1086,503.0,22_41_53_45559
1087,503.0,22_41_53_45592
1088,501.0,22_41_53_45642
1089,503.0,22_41_53_45675
1090,502.0,22_41_53_45741
1091,502.0,22_41_53_45759
1092,503.0,22_41_53_45808
1093,503.0,22_41_53_45843
1094,503.0,22_41_53_45876
1095,503.0,22_41_53_45943
1096,505.0,22_41_53_45961
1097,509.0,22_41_53_46011
1098,511.0,22_41_53_46047
1099,504.0,22_41_54_46080
1100,504.0,22_41_54_46131
1101,504.0,22_41_54_46164
1102,508.0,22_41_54_46198
1103,504.0,22_41_54_46248
1104,504.0,22_41_54_46281
1105,503.0,22_41_54_46331
1106,504.0,22_41_54_46364
1107,503.0,22_41_54_46413
1108,503.0,22_41_54_46447
1109,503.0,22_41_54_46497
1110,504.0,22_41_54_46546
1111,505.0,22_41_54_46564
1112,504.0,22_41_54_46613
1113,502.0,22_41_54_46650
1114,501.0,22_41_54_46700
1115,510.0,22_41_54_46734
1116,501.0,22_41_54_46767
1117,502.0,22_41_54_46819
1118,503.0,22_41_54_46852
1119,501.0,22_41_54_46904
1120,502.0,22_41_54_46937
1121,504.0,22_41_54_46969
1122,501.0,22_41_54_47018
1123,501.0,22_41_54_47052
1124,501.0,22_41_55_47102
1125,501.0,22_41_55_47136
1126,502.0,22_41_55_47169
1127,502.0,22_41_55_47219
1128,502.0,22_41_55_47252
1129,502.0,22_41_55_47302
1130,502.0,22_41_55_47335
1131,502.0,22_41_55_47385
1132,503.0,22_41_55_47417
1133,503.0,22_41_55_47451
1134,503.0,22_41_55_47502
1135,503.0,22_41_55_47535
1136,503.0,22_41_55_47583
1137,503.0,22_41_55_47617
1138,503.0,22_41_55_47667
1139,504.0,22_41_55_47701
1140,503.0,22_41_55_47735
1141,503.0,22_41_55_47783
1142,504.0,22_41_55_47818
1143,512.0,22_41_55_47867
1144,514.0,22_41_55_47901
1145,505.0,22_41_55_47934
1146,505.0,22_41_55_47983
1147,504.0,22_41_55_48017
1148,503.0,22_41_56_48068
1149,503.0,22_41_56_48101
1150,505.0,22_41_56_48150
1151,501.0,22_41_56_48183
1152,508.0,22_41_56_48235
1153,511.0,22_41_56_48268
1154,502.0,22_41_56_48301
1155,509.0,22_41_56_48350
1156,505.0,22_41_56_48383
1157,501.0,22_41_56_48434
1158,501.0,22_41_56_48467
1159,510.0,22_41_56_48516
1160,512.0,22_41_56_48551
1161,501.0,22_41_56_48584
1162,501.0,22_41_56_48651
1163,502.0,22_41_56_48668
1164,512.0,22_41_56_48719
1165,502.0,22_41_56_48754
1166,502.0,22_41_56_48787
1167,507.0,22_41_56_48839
1168,503.0,22_41_56_48872
1169,503.0,22_41_56_48906
1170,504.0,22_41_56_48955
1171,504.0,22_41_56_48989
1172,504.0,22_41_56_49039
1173,503.0,22_41_57_49073
1174,504.0,22_41_57_49107
1175,503.0,22_41_57_49157
1176,503.0,22_41_57_49189
1177,503.0,22_41_57_49241
1178,503.0,22_41_57_49274
1179,506.0,22_41_57_49323
1180,509.0,22_41_57_49357
1181,505.0,22_41_57_49389
1182,503.0,22_41_57_49440
1183,505.0,22_41_57_49473
1184,504.0,22_41_57_49522
1185,503.0,22_41_57_49556
1186,503.0,22_41_57_49606
1187,502.0,22_41_57_49641
1188,502.0,22_41_57_49673
1189,505.0,22_41_57_49723
1190,501.0,22_41_57_49755
1191,501.0,22_41_57_49806
1192,501.0,22_41_57_49839
1193,502.0,22_41_57_49888
1194,503.0,22_41_57_49922
1195,501.0,22_41_57_49972
1196,511.0,22_41_57_50021
1197,501.0,22_41_57_50038
1198,501.0,22_41_58_50088
1199,501.0,22_41_58_50123
1200,505.0,22_41_58_50174
1201,512.0,22_41_58_50207
1202,504.0,22_41_58_50255
1203,502.0,22_41_58_50291
1204,505.0,22_41_58_50325
1205,510.0,22_41_58_50375
1206,505.0,22_41_58_50409
1207,508.0,22_41_58_50457
1208,510.0,22_41_58_50493
1209,503.0,22_41_58_50526
1210,503.0,22_41_58_50577
1211,504.0,22_41_58_50610
1212,503.0,22_41_58_50659
1213,512.0,22_41_58_50695
1214,512.0,22_41_58_50728
1215,504.0,22_41_58_50779
1216,504.0,22_41_58_50812
1217,512.0,22_41_58_50845
1218,508.0,22_41_58_50895
1219,510.0,22_41_58_50930
1220,505.0,22_41_58_50981
1221,504.0,22_41_58_51030
1222,503.0,22_41_58_51047
1223,503.0,22_41_59_51098
1224,502.0,22_41_59_51133
1225,502.0,22_41_59_51184
1226,502.0,22_41_59_51233
1227,501.0,22_41_59_51251
1228,501.0,22_41_59_51299
1229,501.0,22_41_59_51333
1230,502.0,22_41_59_51385
1231,501.0,22_41_59_51435
1232,500.0,22_41_59_51452
1233,506.0,22_41_59_51501
1234,501.0,22_41_59_51534
1235,501.0,22_41_59_51585
1236,501.0,22_41_59_51634
1237,502.0,22_41_59_51667
1238,502.0,22_41_59_51701
1239,502.0,22_41_59_51734
1240,510.0,22_41_59_51785
1241,505.0,22_41_59_51818
1242,511.0,22_41_59_51868
1243,502.0,22_41_59_51902
1244,503.0,22_41_59_51952
1245,503.0,22_41_59_51985
1246,513.0,22_41_59_52034
1247,513.0,22_42_0_52066
1248,504.0,22_42_0_52098
1249,503.0,22_42_0_52149
1250,504.0,22_42_0_52182
1251,503.0,22_42_0_52231
1252,503.0,22_42_0_52265
1253,503.0,22_42_0_52315
1254,503.0,22_42_0_52348
1255,503.0,22_42_0_52381
1256,503.0,22_42_0_52430
1257,503.0,22_42_0_52464
1258,503.0,22_42_0_52514
1259,503.0,22_42_0_52547
1260,508.0,22_42_0_52596
1261,503.0,22_42_0_52629
1262,502.0,22_42_0_52664
1263,502.0,22_42_0_52714
1264,501.0,22_42_0_52748
1265,501.0,22_42_0_52796
1266,502.0,22_42_0_52830
1267,501.0,22_42_0_52880
1268,500.0,22_42_0_52914
1269,511.0,22_42_0_52947
1270,507.0,22_42_0_52996
1271,501.0,22_42_0_53029
1272,501.0,22_42_1_53080
1273,502.0,22_42_1_53113
1274,502.0,22_42_1_53162
1275,503.0,22_42_1_53196
1276,502.0,22_42_1_53246
1277,502.0,22_42_1_53278
1278,503.0,22_42_1_53310
1279,502.0,22_42_1_53361
1280,502.0,22_42_1_53394
1281,503.0,22_42_1_53443
1282,502.0,22_42_1_53477
1283,503.0,22_42_1_53526
1284,503.0,22_42_1_53558
1285,503.0,22_42_1_53592
1286,513.0,22_42_1_53642
1287,507.0,22_42_1_53674
1288,513.0,22_42_1_53724
1289,505.0,22_42_1_53757
1290,504.0,22_42_1_53808
1291,509.0,22_42_1_53840
1292,504.0,22_42_1_53873
1293,503.0,22_42_1_53922
1294,504.0,22_42_1_53956
1295,503.0,22_42_1_54023
1296,514.0,22_42_1_54039
1297,510.0,22_42_2_54089
1298,503.0,22_42_2_54121
1299,502.0,22_42_2_54171
1300,503.0,22_42_2_54202
1301,502.0,22_42_2_54253
1302,502.0,22_42_2_54286
1303,501.0,22_42_2_54335
1304,501.0,22_42_2_54368
1305,502.0,22_42_2_54402
1306,501.0,22_42_2_54452
1307,503.0,22_42_2_54486
1308,500.0,22_42_2_54534
1309,501.0,22_42_2_54568
1310,501.0,22_42_2_54618
1311,504.0,22_42_2_54652
1312,501.0,22_42_2_54685
1313,501.0,22_42_2_54734
1314,502.0,22_42_2_54768
1315,502.0,22_42_2_54819
1316,502.0,22_42_2_54852
1317,512.0,22_42_2_54902
1318,503.0,22_42_2_54934
1319,505.0,22_42_2_54967
1320,506.0,22_42_2_55018
1321,504.0,22_42_2_55051
1322,503.0,22_42_3_55101
1323,510.0,22_42_3_55133
1324,508.0,22_42_3_55184
1325,504.0,22_42_3_55217
1326,504.0,22_42_3_55250
1327,503.0,22_42_3_55300
1328,504.0,22_42_3_55332
1329,503.0,22_42_3_55383
1330,504.0,22_42_3_55416
1331,504.0,22_42_3_55449
1332,503.0,22_42_3_55498
1333,503.0,22_42_3_55531
1334,503.0,22_42_3_55580
1335,512.0,22_42_3_55627
1336,505.0,22_42_3_55660
1337,502.0,22_42_3_55693
1338,502.0,22_42_3_55744
1339,505.0,22_42_3_55777
1340,502.0,22_42_3_55827
1341,501.0,22_42_3_55860
1342,512.0,22_42_3_55911
1343,507.0,22_42_3_55944
1344,501.0,22_42_3_55978
1345,502.0,22_42_3_56026
1346,504.0,22_42_3_56060
1347,501.0,22_42_4_56111
1348,502.0,22_42_4_56145
1349,501.0,22_42_4_56178
1350,502.0,22_42_4_56227
1351,501.0,22_42_4_56263
1352,503.0,22_42_4_56314
1353,502.0,22_42_4_56347
1354,502.0,22_42_4_56397
1355,502.0,22_42_4_56429
1356,508.0,22_42_4_56463
1357,502.0,22_42_4_56514
1358,504.0,22_42_4_56547
1359,506.0,22_42_4_56597
1360,509.0,22_42_4_56629
1361,503.0,22_42_4_56663
1362,503.0,22_42_4_56714
1363,505.0,22_42_4_56747
1364,506.0,22_42_4_56795
1365,505.0,22_42_4_56829
1366,504.0,22_42_4_56880
1367,505.0,22_42_4_56929
1368,510.0,22_42_4_56947
1369,504.0,22_42_4_56995
1370,508.0,22_42_4_57030
1371,504.0,22_42_5_57079
1372,504.0,22_42_5_57113
1373,503.0,22_42_5_57161
1374,503.0,22_42_5_57194
1375,503.0,22_42_5_57243
1376,502.0,22_42_5_57277
1377,509.0,22_42_5_57310
1378,502.0,22_42_5_57359
1379,501.0,22_42_5_57393
1380,512.0,22_42_5_57443
1381,500.0,22_42_5_57476
1382,501.0,22_42_5_57525
1383,501.0,22_42_5_57558
1384,504.0,22_42_5_57609
1385,500.0,22_42_5_57642
1386,501.0,22_42_5_57675
1387,510.0,22_42_5_57725
1388,505.0,22_42_5_57757
1389,502.0,22_42_5_57808
1390,502.0,22_42_5_57841
1391,503.0,22_42_5_57890
1392,507.0,22_42_5_57924
1393,503.0,22_42_5_57974
1394,505.0,22_42_5_58007
1395,512.0,22_42_5_58040
1396,503.0,22_42_6_58089
1397,503.0,22_42_6_58123
1398,505.0,22_42_6_58172
1399,503.0,22_42_6_58204
1400,504.0,22_42_6_58253
1401,509.0,22_42_6_58285
1402,504.0,22_42_6_58335
1403,505.0,22_42_6_58368
1404,503.0,22_42_6_58400
1405,506.0,22_42_6_58450
1406,504.0,22_42_6_58483
1407,505.0,22_42_6_58534
1408,507.0,22_42_6_58567
1409,504.0,22_42_6_58601
1410,513.0,22_42_6_58650
1411,509.0,22_42_6_58684
1412,503.0,22_42_6_58734
1413,503.0,22_42_6_58768
1414,507.0,22_42_6_58816
1415,502.0,22_42_6_58851
1416,501.0,22_42_6_58901
1417,502.0,22_42_6_58935
1418,502.0,22_42_6_58968
1419,502.0,22_42_6_59017
1420,501.0,22_42_6_59050
1421,501.0,22_42_7_59101
1422,501.0,22_42_7_59134
1423,509.0,22_42_7_59183
1424,501.0,22_42_7_59218
1425,501.0,22_42_7_59251
1426,501.0,22_42_7_59318
1427,502.0,22_42_7_59336
1428,505.0,22_42_7_59386
1429,502.0,22_42_7_59422
1430,502.0,22_42_7_59455
1431,502.0,22_42_7_59506
1432,503.0,22_42_7_59556
1433,503.0,22_42_7_59572
1434,505.0,22_42_7_59622
1435,503.0,22_42_7_59657
1436,503.0,22_42_7_59708
1437,503.0,22_42_7_59757
1438,503.0,22_42_7_59775
1439,503.0,22_42_7_59823
1440,503.0,22_42_7_59858
1441,503.0,22_42_7_59926
1442,504.0,22_42_7_59944
1443,506.0,22_42_7_59993
1444,513.0,22_42_7_60028
1445,503.0,22_42_8_60063
1446,504.0,22_42_8_60129
1447,505.0,22_42_8_60147
1448,510.0,22_42_8_60179
1449,505.0,22_42_8_60228
1450,503.0,22_42_8_60259
1451,510.0,22_42_8_60310
1452,503.0,22_42_8_60343
1453,502.0,22_42_8_60392
1454,512.0,22_42_8_60425
1455,503.0,22_42_8_60476
1456,501.0,22_42_8_60509
1457,501.0,22_42_8_60542
1458,506.0,22_42_8_60591
1459,510.0,22_42_8_60624
1460,502.0,22_42_8_60675
1461,502.0,22_42_8_60708
1462,501.0,22_42_8_60757
1463,501.0,22_42_8_60791
1464,501.0,22_42_8_60842
1465,512.0,22_42_8_60875
1466,509.0,22_42_8_60908
1467,504.0,22_42_8_60957
1468,502.0,22_42_8_60991
1469,502.0,22_42_8_61042
1470,503.0,22_42_9_61075
1471,502.0,22_42_9_61109
1472,503.0,22_42_9_61157
1473,502.0,22_42_9_61192
1474,503.0,22_42_9_61242
1475,503.0,22_42_9_61276
1476,503.0,22_42_9_61323
1477,511.0,22_42_9_61356
1478,504.0,22_42_9_61404
1479,511.0,22_42_9_61437
1480,503.0,22_42_9_61471
1481,503.0,22_42_9_61522
1482,504.0,22_42_9_61555
1483,514.0,22_42_9_61605
1484,503.0,22_42_9_61637
1485,512.0,22_42_9_61688
1486,505.0,22_42_9_61735
1487,508.0,22_42_9_61753
1488,504.0,22_42_9_61803
1489,504.0,22_42_9_61838
1490,502.0,22_42_9_61905
1491,502.0,22_42_9_61922
1492,505.0,22_42_9_61972
1493,502.0,22_42_9_62004
1494,501.0,22_42_9_62038
1495,502.0,22_42_10_62107
1496,501.0,22_42_10_62123
1497,500.0,22_42_10_62173
1498,506.0,22_42_10_62209
1499,501.0,22_42_10_62244
1500,501.0,22_42_10_62311
1501,502.0,22_42_10_62328
1502,502.0,22_42_10_62378
1503,506.0,22_42_10_62413
1504,512.0,22_42_10_62449
1505,502.0,22_42_10_62515
1506,510.0,22_42_10_62532
1507,502.0,22_42_10_62581
1508,505.0,22_42_10_62598
1509,504.0,22_42_10_62648
1510,511.0,22_42_10_62715
1511,504.0,22_42_10_62732
1512,503.0,22_42_10_62784
1513,503.0,22_42_10_62818
1514,504.0,22_42_10_62852
1515,505.0,22_42_10_62886
1516,503.0,22_42_10_62954
1517,504.0,22_42_10_62971
1518,508.0,22_42_10_63021
1519,504.0,22_42_10_63055
1520,508.0,22_42_11_63088
1521,504.0,22_42_11_63158
1522,504.0,22_42_11_63175
1523,504.0,22_42_11_63225
1524,503.0,22_42_11_63261
1525,503.0,22_42_11_63295
1526,503.0,22_42_11_63345
1527,503.0,22_42_11_63379
1528,505.0,22_42_11_63412
1529,502.0,22_42_11_63462
1530,502.0,22_42_11_63494
1531,502.0,22_42_11_63546
1532,502.0,22_42_11_63579
1533,505.0,22_42_11_63628
1534,501.0,22_42_11_63661
1535,501.0,22_42_11_63694
1536,505.0,22_42_11_63745
1537,508.0,22_42_11_63778
1538,500.0,22_42_11_63827
1539,501.0,22_42_11_63863
1540,501.0,22_42_11_63914
1541,512.0,22_42_11_63947
1542,501.0,22_42_11_63980
1543,502.0,22_42_11_64029
1544,503.0,22_42_12_64065
1545,502.0,22_42_12_64098
1546,504.0,22_42_12_64149
1547,503.0,22_42_12_64182
1548,504.0,22_42_12_64231
1549,513.0,22_42_12_64265
1550,506.0,22_42_12_64315
1551,504.0,22_42_12_64348
1552,504.0,22_42_12_64382
1553,503.0,22_42_12_64430
1554,507.0,22_42_12_64467
1555,509.0,22_42_12_64517
1556,513.0,22_42_12_64551
1557,503.0,22_42_12_64584
1558,504.0,22_42_12_64633
1559,504.0,22_42_12_64668
1560,503.0,22_42_12_64718
1561,504.0,22_42_12_64751
1562,509.0,22_42_12_64784
1563,504.0,22_42_12_64833
1564,507.0,22_42_12_64867
1565,503.0,22_42_12_64917
1566,503.0,22_42_12_64966
1567,502.0,22_42_12_65001
1568,502.0,22_42_12_65034
1569,502.0,22_42_13_65070
1570,512.0,22_42_13_65121
1571,502.0,22_42_13_65154
1572,502.0,22_42_13_65213
1573,500.0,22_42_13_65231
1574,502.0,22_42_13_65279
1575,500.0,22_42_13_65313
1576,501.0,22_42_13_65363
1577,509.0,22_42_13_65397
1578,512.0,22_42_13_65445
1579,501.0,22_42_13_65480
1580,502.0,22_42_13_65529
1581,502.0,22_42_13_65563
1582,502.0,22_42_13_65596
1583,503.0,22_42_13_65645
1584,504.0,22_42_13_65679
1585,512.0,22_42_13_65729
1586,504.0,22_42_13_65762
1587,503.0,22_42_13_65795
1588,503.0,22_42_13_65844
1589,504.0,22_42_13_65878
1590,504.0,22_42_13_65928
1591,503.0,22_42_13_65961
1592,504.0,22_42_13_66011
1593,503.0,22_42_13_66043
1594,504.0,22_42_14_66077
1595,509.0,22_42_14_66128
1596,513.0,22_42_14_66161
1597,512.0,22_42_14_66211
1598,503.0,22_42_14_66243
1599,503.0,22_42_14_66294
1600,512.0,22_42_14_66327
1601,505.0,22_42_14_66360
1602,503.0,22_42_14_66409
1603,504.0,22_42_14_66442
1604,504.0,22_42_14_66491
1605,502.0,22_42_14_66524
1606,501.0,22_42_14_66572
1607,503.0,22_42_14_66605
1608,502.0,22_42_14_66656
1609,501.0,22_42_14_66688
1610,502.0,22_42_14_66738
1611,503.0,22_42_14_66770
1612,501.0,22_42_14_66821
1613,500.0,22_42_14_66869
1614,503.0,22_42_14_66905
1615,501.0,22_42_14_66938
1616,502.0,22_42_14_66973
1617,502.0,22_42_14_67039
1618,502.0,22_42_14_67056
1619,502.0,22_42_15_67105
1620,511.0,22_42_15_67138
1621,503.0,22_42_15_67172
1622,503.0,22_42_15_67222
1623,504.0,22_42_15_67255
1624,503.0,22_42_15_67304
1625,504.0,22_42_15_67336
1626,503.0,22_42_15_67386
1627,503.0,22_42_15_67419
1628,504.0,22_42_15_67452
1629,503.0,22_42_15_67501
1630,504.0,22_42_15_67535
1631,504.0,22_42_15_67585
1632,504.0,22_42_15_67618
1633,503.0,22_42_15_67668
1634,503.0,22_42_15_67700
1635,503.0,22_42_15_67734
1636,503.0,22_42_15_67784
1637,504.0,22_42_15_67817
1638,503.0,22_42_15_67866
1639,503.0,22_42_15_67899
1640,511.0,22_42_15_67950
1641,506.0,22_42_15_67983
1642,502.0,22_42_15_68032
1643,502.0,22_42_16_68065
1644,501.0,22_42_16_68098
1645,501.0,22_42_16_68149
1646,501.0,22_42_16_68180
1647,506.0,22_42_16_68231
1648,502.0,22_42_16_68264
1649,500.0,22_42_16_68314
1650,502.0,22_42_16_68346
1651,501.0,22_42_16_68397
1652,501.0,22_42_16_68430
1653,502.0,22_42_16_68464
1654,502.0,22_42_16_68513
1655,503.0,22_42_16_68546
1656,502.0,22_42_16_68595
1657,503.0,22_42_16_68629
1658,502.0,22_42_16_68676
1659,502.0,22_42_16_68711
1660,503.0,22_42_16_68760
1661,502.0,22_42_16_68794
1662,503.0,22_42_16_68827
1663,503.0,22_42_16_68876
1664,503.0,22_42_16_68911
1665,505.0,22_42_16_68961
1666,507.0,22_42_16_68994
1667,504.0,22_42_16_69027
1668,504.0,22_42_17_69076
1669,506.0,22_42_17_69110
1670,506.0,22_42_17_69160
1671,504.0,22_42_17_69209
1672,503.0,22_42_17_69244
1673,503.0,22_42_17_69277
1674,504.0,22_42_17_69312
1675,503.0,22_42_17_69361
1676,504.0,22_42_17_69393
1677,503.0,22_42_17_69446
1678,504.0,22_42_17_69479
1679,502.0,22_42_17_69512
1680,510.0,22_42_17_69560
1681,501.0,22_42_17_69596
1682,501.0,22_42_17_69647
1683,506.0,22_42_17_69680
1684,501.0,22_42_17_69730
1685,501.0,22_42_17_69762
1686,510.0,22_42_17_69797
1687,512.0,22_42_17_69847
1688,501.0,22_42_17_69881
1689,501.0,22_42_17_69930
1690,502.0,22_42_17_69964
1691,506.0,22_42_17_70014
1692,504.0,22_42_17_70048
1693,510.0,22_42_18_70081
1694,511.0,22_42_18_70131
1695,502.0,22_42_18_70163
1696,503.0,22_42_18_70229
1697,503.0,22_42_18_70247
1698,504.0,22_42_18_70297
1699,503.0,22_42_18_70333
1700,503.0,22_42_18_70366
1701,503.0,22_42_18_70417
1702,504.0,22_42_18_70465
1703,503.0,22_42_18_70482
1704,514.0,22_42_18_70531
1705,508.0,22_42_18_70569
1706,505.0,22_42_18_70620
1707,503.0,22_42_18_70669
1708,503.0,22_42_18_70686
1709,503.0,22_42_18_70735
1710,503.0,22_42_18_70770
1711,503.0,22_42_18_70804
1712,505.0,22_42_18_70870
1713,506.0,22_42_18_70888
1714,503.0,22_42_18_70937
1715,503.0,22_42_18_70971
1716,503.0,22_42_18_71021
1717,502.0,22_42_19_71070
1718,502.0,22_42_19_71104
1719,501.0,22_42_19_71137
1720,501.0,22_42_19_71174
1721,501.0,22_42_19_71241
1722,501.0,22_42_19_71258
1723,512.0,22_42_19_71307
1724,501.0,22_42_19_71343
1725,501.0,22_42_19_71376
1726,501.0,22_42_19_71429
1727,501.0,22_42_19_71462
1728,502.0,22_42_19_71495
1729,503.0,22_42_19_71545
1730,502.0,22_42_19_71577
1731,502.0,22_42_19_71629
1732,502.0,22_42_19_71677
1733,502.0,22_42_19_71713
1734,502.0,22_42_19_71746
1735,503.0,22_42_19_71780
1736,503.0,22_42_19_71830
1737,503.0,22_42_19_71863
1738,503.0,22_42_19_71897
1739,503.0,22_42_19_71945
1740,503.0,22_42_19_71981
1741,503.0,22_42_19_72048
1742,505.0,22_42_20_72065
1743,508.0,22_42_20_72114
1744,504.0,22_42_20_72151
1745,504.0,22_42_20_72183
1746,505.0,22_42_20_72251
1747,504.0,22_42_20_72269
1748,504.0,22_42_20_72319
1749,504.0,22_42_20_72355
1750,503.0,22_42_20_72388
1751,503.0,22_42_20_72422
1752,508.0,22_42_20_72473
1753,503.0,22_42_20_72522
1754,504.0,22_42_20_72558
1755,503.0,22_42_20_72591
1756,502.0,22_42_20_72625
1757,501.0,22_42_20_72675
1758,501.0,22_42_20_72724
1759,503.0,22_42_20_72760
1760,500.0,22_42_20_72793
1761,501.0,22_42_20_72828
1762,501.0,22_42_20_72878
1763,501.0,22_42_20_72913
1764,501.0,22_42_20_72960
1765,501.0,22_42_20_72995
1766,501.0,22_42_20_73044
1767,502.0,22_42_21_73078
1768,502.0,22_42_21_73111
1769,502.0,22_42_21_73160
1770,502.0,22_42_21_73194
1771,502.0,22_42_21_73244
1772,512.0,22_42_21_73292
1773,502.0,22_42_21_73331
1774,503.0,22_42_21_73363
1775,505.0,22_42_21_73397
1776,513.0,22_42_21_73448
1777,505.0,22_42_21_73481
1778,503.0,22_42_21_73514
1779,504.0,22_42_21_73563
1780,511.0,22_42_21_73597
1781,503.0,22_42_21_73648
1782,511.0,22_42_21_73681
1783,504.0,22_42_21_73714
1784,512.0,22_42_21_73763
1785,504.0,22_42_21_73797
1786,508.0,22_42_21_73864
1787,503.0,22_42_21_73881
1788,505.0,22_42_21_73931
1789,504.0,22_42_21_73965
1790,503.0,22_42_21_74000
1791,502.0,22_42_22_74067
1792,505.0,22_42_22_74085
1793,504.0,22_42_22_74137
1794,501.0,22_42_22_74174
1795,501.0,22_42_22_74207
1796,511.0,22_42_22_74241
1797,501.0,22_42_22_74292
1798,500.0,22_42_22_74325
1799,503.0,22_42_22_74374
1800,501.0,22_42_22_74407
1801,502.0,22_42_22_74458
1802,502.0,22_42_22_74491
1803,502.0,22_42_22_74540
1804,504.0,22_42_22_74577
1805,502.0,22_42_22_74610
1806,504.0,22_42_22_74661
1807,507.0,22_42_22_74711
1808,504.0,22_42_22_74727
1809,502.0,22_42_22_74778
1810,504.0,22_42_22_74814
1811,508.0,22_42_22_74849
1812,503.0,22_42_22_74901
1813,507.0,22_42_22_74935
1814,505.0,22_42_22_74968
1815,503.0,22_42_22_75016
1816,503.0,22_42_22_75052
1817,503.0,22_42_23_75103
1818,503.0,22_42_23_75152
1819,504.0,22_42_23_75170
1820,503.0,22_42_23_75221
1821,503.0,22_42_23_75257
1822,512.0,22_42_23_75290
1823,503.0,22_42_23_75341
1824,512.0,22_42_23_75374
1825,504.0,22_42_23_75423
1826,508.0,22_42_23_75457
1827,504.0,22_42_23_75507
1828,503.0,22_42_23_75556
1829,502.0,22_42_23_75573
1830,513.0,22_42_23_75623
1831,502.0,22_42_23_75659
1832,501.0,22_42_23_75710
1833,503.0,22_42_23_75759
1834,501.0,22_42_23_75777
1835,502.0,22_42_23_75826
1836,510.0,22_42_23_75862
1837,501.0,22_42_23_75912
1838,500.0,22_42_23_75961
1839,502.0,22_42_23_75998
1840,502.0,22_42_23_76032
1841,504.0,22_42_24_76066
1842,501.0,22_42_24_76116
1843,502.0,22_42_24_76149
1844,508.0,22_42_24_76197
1845,503.0,22_42_24_76234
1846,502.0,22_42_24_76267
1847,503.0,22_42_24_76301
1848,506.0,22_42_24_76352
1849,502.0,22_42_24_76385
1850,503.0,22_42_24_76435
1851,503.0,22_42_24_76468
1852,503.0,22_42_24_76519
1853,503.0,22_42_24_76552
1854,504.0,22_42_24_76585
1855,510.0,22_42_24_76635
1856,504.0,22_42_24_76668
1857,507.0,22_42_24_76717
1858,504.0,22_42_24_76751
1859,505.0,22_42_24_76785
1860,504.0,22_42_24_76838
1861,503.0,22_42_24_76872
1862,504.0,22_42_24_76920
1863,509.0,22_42_24_76954
1864,503.0,22_42_24_76988
1865,503.0,22_42_24_77038
1866,503.0,22_42_25_77069
1867,511.0,22_42_25_77119
1868,511.0,22_42_25_77153
1869,502.0,22_42_25_77203
1870,502.0,22_42_25_77237
1871,503.0,22_42_25_77287
1872,501.0,22_42_25_77319
1873,501.0,22_42_25_77353
1874,507.0,22_42_25_77404
1875,501.0,22_42_25_77436
1876,500.0,22_42_25_77485
1877,503.0,22_42_25_77519
1878,501.0,22_42_25_77569
1879,502.0,22_42_25_77602
1880,501.0,22_42_25_77635
1881,501.0,22_42_25_77684
1882,502.0,22_42_25_77718
1883,502.0,22_42_25_77768
1884,502.0,22_42_25_77818
1885,502.0,22_42_25_77856
1886,502.0,22_42_25_77889
1887,502.0,22_42_25_77923
1888,502.0,22_42_25_77973
1889,502.0,22_42_25_78022
1890,503.0,22_42_25_78040
1891,503.0,22_42_26_78089
1892,503.0,22_42_26_78126
1893,512.0,22_42_26_78160
1894,503.0,22_42_26_78225
1895,504.0,22_42_26_78243
1896,505.0,22_42_26_78293
1897,510.0,22_42_26_78329
1898,504.0,22_42_26_78362
1899,504.0,22_42_26_78413
1900,504.0,22_42_26_78446
1901,503.0,22_42_26_78495
1902,503.0,22_42_26_78529
1903,503.0,22_42_26_78579
1904,503.0,22_42_26_78628
1905,509.0,22_42_26_78645
1906,508.0,22_42_26_78694
1907,503.0,22_42_26_78731
1908,502.0,22_42_26_78782
1909,503.0,22_42_26_78831
1910,502.0,22_42_26_78848
1911,501.0,22_42_26_78897
1912,501.0,22_42_26_78931
1913,501.0,22_42_26_79000
1914,502.0,22_42_26_79017
1915,501.0,22_42_27_79067
1916,501.0,22_42_27_79103
1917,500.0,22_42_27_79137
1918,501.0,22_42_27_79171
1919,506.0,22_42_27_79222
1920,502.0,22_42_27_79255
1921,503.0,22_42_27_79303
1922,502.0,22_42_27_79340
1923,502.0,22_42_27_79373
1924,502.0,22_42_27_79424
1925,502.0,22_42_27_79457
1926,512.0,22_42_27_79506
1927,503.0,22_42_27_79542
1928,503.0,22_42_27_79575
1929,506.0,22_42_27_79626
1930,508.0,22_42_27_79659
1931,503.0,22_42_27_79708
1932,514.0,22_42_27_79742
1933,507.0,22_42_27_79775
1934,504.0,22_42_27_79826
1935,505.0,22_42_27_79859
1936,512.0,22_42_27_79908
1937,511.0,22_42_27_79942
1938,508.0,22_42_27_79993
1939,510.0,22_42_27_80026
1940,503.0,22_42_27_80060
1941,504.0,22_42_28_80109
1942,508.0,22_42_28_80143
1943,509.0,22_42_28_80192
1944,503.0,22_42_28_80226
1945,503.0,22_42_28_80260
1946,503.0,22_42_28_80311
1947,503.0,22_42_28_80344
1948,502.0,22_42_28_80392
1949,502.0,22_42_28_80426
1950,503.0,22_42_28_80477
1951,501.0,22_42_28_80510
1952,502.0,22_42_28_80559
1953,501.0,22_42_28_80592
1954,501.0,22_42_28_80626
1955,500.0,22_42_28_80677
1956,501.0,22_42_28_80710
1957,502.0,22_42_28_80759
1958,501.0,22_42_28_80792
1959,501.0,22_42_28_80844
1960,504.0,22_42_28_80892
1961,504.0,22_42_28_80909
1962,503.0,22_42_28_80960
1963,508.0,22_42_28_80994
1964,503.0,22_42_28_81030
1965,505.0,22_42_29_81081
1966,504.0,22_42_29_81131
1967,506.0,22_42_29_81149
1968,503.0,22_42_29_81198
1969,503.0,22_42_29_81235
1970,503.0,22_42_29_81302
1971,503.0,22_42_29_81319
1972,503.0,22_42_29_81369
1973,503.0,22_42_29_81407
1974,503.0,22_42_29_81439
1975,504.0,22_42_29_81473
1976,503.0,22_42_29_81524
1977,503.0,22_42_29_81557
1978,503.0,22_42_29_81607
1979,510.0,22_42_29_81639
1980,513.0,22_42_29_81673
1981,504.0,22_42_29_81724
1982,503.0,22_42_29_81757
1983,504.0,22_42_29_81807
1984,504.0,22_42_29_81840
1985,503.0,22_42_29_81889
1986,505.0,22_42_29_81925
1987,503.0,22_42_29_81958
1988,503.0,22_42_29_82009
1989,503.0,22_42_29_82042
1990,501.0,22_42_30_82091
1991,507.0,22_42_30_82125
1992,504.0,22_42_30_82175
1993,501.0,22_42_30_82207
1994,501.0,22_42_30_82242
1995,504.0,22_42_30_82292
1996,505.0,22_42_30_82326
1997,501.0,22_42_30_82375
1998,502.0,22_42_30_82409
1999,503.0,22_42_30_82442
2000,501.0,22_42_30_82492
2001,501.0,22_42_30_82525
2002,504.0,22_42_30_82576
2003,505.0,22_42_30_82623
2004,506.0,22_42_30_82659
2005,502.0,22_42_30_82692
2006,502.0,22_42_30_82726
2007,503.0,22_42_30_82777
2008,503.0,22_42_30_82826
2009,504.0,22_42_30_82862
2010,503.0,22_42_30_82895
2011,503.0,22_42_30_82929
2012,504.0,22_42_30_82996
2013,503.0,22_42_30_83012
2014,503.0,22_42_31_83063
2015,507.0,22_42_31_83095
2016,514.0,22_42_31_83135
2017,503.0,22_42_31_83185
2018,506.0,22_42_31_83218
2019,504.0,22_42_31_83252
2020,508.0,22_42_31_83300
2021,506.0,22_42_31_83335
2022,507.0,22_42_31_83385
2023,504.0,22_42_31_83419
2024,511.0,22_42_31_83466
2025,504.0,22_42_31_83504
2026,504.0,22_42_31_83537
2027,503.0,22_42_31_83589
2028,510.0,22_42_31_83622
2029,513.0,22_42_31_83655
2030,501.0,22_42_31_83705
2031,501.0,22_42_31_83737
2032,501.0,22_42_31_83789
2033,502.0,22_42_31_83821
2034,501.0,22_42_31_83871
2035,501.0,22_42_31_83904
2036,501.0,22_42_31_83938
2037,501.0,22_42_31_83989
2038,502.0,22_42_31_84022
2039,501.0,22_42_32_84071
2040,502.0,22_42_32_84105
2041,502.0,22_42_32_84155
2042,503.0,22_42_32_84203
2043,503.0,22_42_32_84220
2044,502.0,22_42_32_84270
2045,502.0,22_42_32_84306
2046,502.0,22_42_32_84357
2047,503.0,22_42_32_84407
2048,503.0,22_42_32_84424
2049,502.0,22_42_32_84474
2050,503.0,22_42_32_84511
2051,504.0,22_42_32_84544
2052,509.0,22_42_32_84595
2053,504.0,22_42_32_84628
2054,508.0,22_42_32_84677
2055,504.0,22_42_32_84712
2056,504.0,22_42_32_84744
2057,504.0,22_42_32_84795
2058,506.0,22_42_32_84828
2059,509.0,22_42_32_84877
2060,504.0,22_42_32_84911
2061,504.0,22_42_32_84962
2062,505.0,22_42_32_84996
2063,503.0,22_42_32_85029
2064,503.0,22_42_33_85078
2065,504.0,22_42_33_85112
2066,503.0,22_42_33_85161
2067,504.0,22_42_33_85193
2068,504.0,22_42_33_85245
2069,504.0,22_42_33_85278
2070,502.0,22_42_33_85311
2071,502.0,22_42_33_85360
2072,502.0,22_42_33_85393
2073,501.0,22_42_33_85445
2074,502.0,22_42_33_85477
2075,501.0,22_42_33_85526
2076,501.0,22_42_33_85561
2077,500.0,22_42_33_85596
2078,501.0,22_42_33_85663
2079,502.0,22_42_33_85681
2080,501.0,22_42_33_85733
2081,501.0,22_42_33_85770
2082,501.0,22_42_33_85803
2083,511.0,22_42_33_85837
2084,504.0,22_42_33_85888
2085,511.0,22_42_33_85921
2086,504.0,22_42_33_85971
2087,502.0,22_42_33_86003
2088,503.0,22_42_33_86054
2089,502.0,22_42_34_86102
2090,502.0,22_42_34_86119
2091,503.0,22_42_34_86173
2092,506.0,22_42_34_86206
2093,503.0,22_42_34_86240
2094,504.0,22_42_34_86307
2095,503.0,22_42_34_86323
2096,503.0,22_42_34_86373
2097,503.0,22_42_34_86406
2098,504.0,22_42_34_86443
2099,504.0,22_42_34_86510
2100,504.0,22_42_34_86527
2101,504.0,22_42_34_86577
2102,503.0,22_42_34_86613
2103,503.0,22_42_34_86646
2104,503.0,22_42_34_86713
2105,504.0,22_42_34_86731
2106,504.0,22_42_34_86781
2107,503.0,22_42_34_86830
2108,504.0,22_42_34_86846
2109,503.0,22_42_34_86896
2110,503.0,22_42_34_86928
2111,503.0,22_42_34_86979
2112,502.0,22_42_34_87012
2113,502.0,22_42_34_87061
2114,501.0,22_42_35_87094
2115,503.0,22_42_35_87145
2116,501.0,22_42_35_87178
2117,501.0,22_42_35_87211
2118,502.0,22_42_35_87261
2119,500.0,22_42_35_87294
2120,501.0,22_42_35_87345
2121,504.0,22_42_35_87378
2122,502.0,22_42_35_87428
2123,501.0,22_42_35_87460
2124,502.0,22_42_35_87494
2125,502.0,22_42_35_87545
2126,502.0,22_42_35_87578
2127,502.0,22_42_35_87628
2128,502.0,22_42_35_87660
2129,502.0,22_42_35_87695
2130,502.0,22_42_35_87745
2131,503.0,22_42_35_87779
2132,505.0,22_42_35_87828
2133,503.0,22_42_35_87861
2134,504.0,22_42_35_87911
2135,503.0,22_42_35_87945
2136,503.0,22_42_35_87978
2137,503.0,22_42_35_88028
2138,503.0,22_42_35_88060
2139,503.0,22_42_36_88110
2140,504.0,22_42_36_88141
2141,504.0,22_42_36_88191
2142,503.0,22_42_36_88224
2143,504.0,22_42_36_88274
2144,503.0,22_42_36_88306
2145,503.0,22_42_36_88340
2146,507.0,22_42_36_88391
2147,504.0,22_42_36_88424
2148,506.0,22_42_36_88474
2149,504.0,22_42_36_88506
2150,513.0,22_42_36_88555
2151,503.0,22_42_36_88589
2152,503.0,22_42_36_88639
2153,503.0,22_42_36_88672
2154,502.0,22_42_36_88705
2155,504.0,22_42_36_88754
2156,508.0,22_42_36_88788
2157,501.0,22_42_36_88839
2158,501.0,22_42_36_88872
2159,501.0,22_42_36_88921
2160,502.0,22_42_36_88954
2161,501.0,22_42_36_88988
2162,512.0,22_42_36_89039
2163,509.0,22_42_37_89072
2164,501.0,22_42_37_89120
2165,506.0,22_42_37_89154
2166,503.0,22_42_37_89205
2167,501.0,22_42_37_89239
2168,502.0,22_42_37_89272
2169,502.0,22_42_37_89320
2170,504.0,22_42_37_89354
2171,502.0,22_42_37_89405
2172,505.0,22_42_37_89439
2173,507.0,22_42_37_89472
2174,504.0,22_42_37_89522
2175,507.0,22_42_37_89554
2176,504.0,22_42_37_89620
2177,506.0,22_42_37_89638
2178,505.0,22_42_37_89687
2179,506.0,22_42_37_89726
2180,503.0,22_42_37_89759
2181,506.0,22_42_37_89810
2182,509.0,22_42_37_89859
2183,509.0,22_42_37_89876
2184,512.0,22_42_37_89926
2185,514.0,22_42_37_89958
2186,510.0,22_42_37_90008
2187,505.0,22_42_37_90039
2188,508.0,22_42_38_90090
2189,504.0,22_42_38_90123
2190,503.0,22_42_38_90172
2191,504.0,22_42_38_90206
2192,503.0,22_42_38_90256
2193,503.0,22_42_38_90289
2194,503.0,22_42_38_90322
2195,503.0,22_42_38_90371
2196,502.0,22_42_38_90404
2197,502.0,22_42_38_90455
2198,507.0,22_42_38_90488
2199,504.0,22_42_38_90537
2200,501.0,22_42_38_90570
2201,501.0,22_42_38_90605
2202,501.0,22_42_38_90654
2203,501.0,22_42_38_90688
2204,505.0,22_42_38_90736
2205,501.0,22_42_38_90770
2206,501.0,22_42_38_90821
2207,502.0,22_42_38_90855
2208,502.0,22_42_38_90888
2209,502.0,22_42_38_90938
2210,502.0,22_42_38_90970
2211,503.0,22_42_38_91022
2212,506.0,22_42_38_91055
2213,502.0,22_42_39_91088
2214,502.0,22_42_39_91138
2215,504.0,22_42_39_91171
2216,503.0,22_42_39_91222
2217,504.0,22_42_39_91255
2218,503.0,22_42_39_91304
2219,504.0,22_42_39_91337
2220,503.0,22_42_39_91370
2221,503.0,22_42_39_91421
2222,504.0,22_42_39_91454
2223,504.0,22_42_39_91503
2224,503.0,22_42_39_91537
2225,503.0,22_42_39_91587
2226,505.0,22_42_39_91620
2227,506.0,22_42_39_91653
2228,503.0,22_42_39_91702
2229,504.0,22_42_39_91735
2230,505.0,22_42_39_91785
2231,503.0,22_42_39_91817
2232,503.0,22_42_39_91868
2233,503.0,22_42_39_91901
2234,507.0,22_42_39_91950
2235,503.0,22_42_39_91982
2236,503.0,22_42_39_92031
2237,506.0,22_42_40_92064
2238,502.0,22_42_40_92098
2239,501.0,22_42_40_92146
2240,501.0,22_42_40_92180
2241,502.0,22_42_40_92246
2242,501.0,22_42_40_92264
2243,502.0,22_42_40_92312
2244,508.0,22_42_40_92348
2245,501.0,22_42_40_92382
2246,500.0,22_42_40_92449
2247,508.0,22_42_40_92467
2248,507.0,22_42_40_92516
2249,502.0,22_42_40_92550
2250,506.0,22_42_40_92585
2251,509.0,22_42_40_92637
2252,506.0,22_42_40_92686
2253,505.0,22_42_40_92722
2254,512.0,22_42_40_92755
2255,502.0,22_42_40_92789
2256,509.0,22_42_40_92839
2257,503.0,22_42_40_92888
2258,503.0,22_42_40_92906
2259,503.0,22_42_40_92954
2260,505.0,22_42_40_92989
2261,504.0,22_42_40_93057
2262,504.0,22_42_41_93075
2263,504.0,22_42_41_93124
2264,505.0,22_42_41_93162
2265,504.0,22_42_41_93195
2266,503.0,22_42_41_93229
2267,510.0,22_42_41_93295
2268,504.0,22_42_41_93312
2269,513.0,22_42_41_93362
2270,503.0,22_42_41_93397
2271,503.0,22_42_41_93448
2272,503.0,22_42_41_93497
2273,507.0,22_42_41_93514
2274,504.0,22_42_41_93564
2275,503.0,22_42_41_93597
2276,503.0,22_42_41_93633
2277,503.0,22_42_41_93701
2278,502.0,22_42_41_93717
2279,502.0,22_42_41_93766
2280,501.0,22_42_41_93797
2281,503.0,22_42_41_93848
2282,501.0,22_42_41_93881
2283,502.0,22_42_41_93930
2284,501.0,22_42_41_93963
2285,500.0,22_42_41_94014
2286,501.0,22_42_41_94047
2287,503.0,22_42_42_94081
2288,506.0,22_42_42_94130
2289,503.0,22_42_42_94163
2290,511.0,22_42_42_94213
2291,502.0,22_42_42_94247
2292,505.0,22_42_42_94295
2293,504.0,22_42_42_94330
2294,509.0,22_42_42_94362
2295,504.0,22_42_42_94413
2296,503.0,22_42_42_94446
2297,502.0,22_42_42_94495
2298,503.0,22_42_42_94529
2299,503.0,22_42_42_94579
2300,503.0,22_42_42_94612
2301,503.0,22_42_42_94645
2302,504.0,22_42_42_94694
2303,504.0,22_42_42_94727
2304,504.0,22_42_42_94777
2305,503.0,22_42_42_94809
2306,503.0,22_42_42_94858
2307,504.0,22_42_42_94890
2308,514.0,22_42_42_94938
2309,511.0,22_42_42_94972
2310,504.0,22_42_42_95023
2311,503.0,22_42_42_95056
2312,504.0,22_42_43_95089
2313,504.0,22_42_43_95139
2314,503.0,22_42_43_95172
2315,509.0,22_42_43_95223
2316,502.0,22_42_43_95257
2317,502.0,22_42_43_95289
2318,502.0,22_42_43_95339
2319,502.0,22_42_43_95372
2320,501.0,22_42_43_95423
2321,501.0,22_42_43_95456
2322,501.0,22_42_43_95505
2323,501.0,22_42_43_95539
2324,500.0,22_42_43_95590
2325,510.0,22_42_43_95623
2326,502.0,22_42_43_95671
2327,503.0,22_42_43_95707
2328,511.0,22_42_43_95741
2329,501.0,22_42_43_95807
2330,502.0,22_42_43_95825
2331,502.0,22_42_43_95873
2332,502.0,22_42_43_95911
2333,503.0,22_42_43_95944
2334,503.0,22_42_43_95977
2335,503.0,22_42_43_96044
2336,504.0,22_42_43_96061
2337,505.0,22_42_44_96111
2338,503.0,22_42_44_96147
2339,503.0,22_42_44_96179
2340,503.0,22_42_44_96229
2341,510.0,22_42_44_96265
2342,503.0,22_42_44_96316
2343,505.0,22_42_44_96349
2344,507.0,22_42_44_96382
2345,505.0,22_42_44_96431
2346,504.0,22_42_44_96465
2347,504.0,22_42_44_96516
2348,506.0,22_42_44_96549
2349,503.0,22_42_44_96583
2350,503.0,22_42_44_96631
2351,505.0,22_42_44_96665
2352,503.0,22_42_44_96715
2353,508.0,22_42_44_96764
2354,505.0,22_42_44_96800
2355,504.0,22_42_44_96834
2356,502.0,22_42_44_96867
2357,501.0,22_42_44_96918
2358,505.0,22_42_44_96951
2359,501.0,22_42_44_97000
2360,502.0,22_42_44_97037
2361,503.0,22_42_45_97070
2362,502.0,22_42_45_97137
2363,502.0,22_42_45_97155
2364,506.0,22_42_45_97205
2365,501.0,22_42_45_97240
2366,501.0,22_42_45_97273
2367,501.0,22_42_45_97342
2368,502.0,22_42_45_97343
2369,502.0,22_42_45_97416
2370,502.0,22_42_45_97434
2371,502.0,22_42_45_97483
2372,502.0,22_42_45_97520
2373,502.0,22_42_45_97553
2374,503.0,22_42_45_97619
2375,503.0,22_42_45_97637
2376,504.0,22_42_45_97687
2377,503.0,22_42_45_97721
2378,511.0,22_42_45_97754
2379,503.0,22_42_45_97823
2380,504.0,22_42_45_97841
2381,508.0,22_42_45_97890
2382,503.0,22_42_45_97926
2383,505.0,22_42_45_97959
2384,503.0,22_42_45_98027
2385,507.0,22_42_45_98044
2386,504.0,22_42_46_98094
2387,504.0,22_42_46_98112
2388,504.0,22_42_46_98167
2389,503.0,22_42_46_98201
2390,504.0,22_42_46_98267
2391,509.0,22_42_46_98285
2392,504.0,22_42_46_98334
2393,502.0,22_42_46_98370
2394,502.0,22_42_46_98403
2395,503.0,22_42_46_98470
2396,505.0,22_42_46_98488
2397,501.0,22_42_46_98539
2398,505.0,22_42_46_98574
2399,503.0,22_42_46_98608
2400,501.0,22_42_46_98674
2401,501.0,22_42_46_98692
2402,509.0,22_42_46_98742
2403,512.0,22_42_46_98779
2404,501.0,22_42_46_98812
2405,501.0,22_42_46_98846
2406,502.0,22_42_46_98897
2407,502.0,22_42_46_98930
2408,504.0,22_42_46_98980
2409,502.0,22_42_46_99012
2410,502.0,22_42_47_99063
2411,503.0,22_42_47_99111
2412,503.0,22_42_47_99129
2413,507.0,22_42_47_99184
2414,504.0,22_42_47_99218
2415,510.0,22_42_47_99252
2416,503.0,22_42_47_99318
2417,504.0,22_42_47_99335
2418,503.0,22_42_47_99384
2419,503.0,22_42_47_99416
2420,503.0,22_42_47_99466
2421,504.0,22_42_47_99499
2422,503.0,22_42_47_99532
2423,504.0,22_42_47_99581
2424,504.0,22_42_47_99615
2425,504.0,22_42_47_99665
2426,503.0,22_42_47_99698
2427,503.0,22_42_47_99747
2428,505.0,22_42_47_99780
2429,505.0,22_42_47_99831
2430,502.0,22_42_47_99864
2431,507.0,22_42_47_99897
2432,502.0,22_42_47_99946
2433,501.0,22_42_47_99979
2434,504.0,22_42_47_100030
2435,501.0,22_42_48_100063
2436,500.0,22_42_48_100096
2437,503.0,22_42_48_100145
2438,509.0,22_42_48_100197
2439,501.0,22_42_48_100245
2440,501.0,22_42_48_100262
2441,503.0,22_42_48_100313
2442,511.0,22_42_48_100350
2443,502.0,22_42_48_100384
2444,502.0,22_42_48_100434
2445,503.0,22_42_48_100468
2446,502.0,22_42_48_100516
2447,502.0,22_42_48_100551
2448,503.0,22_42_48_100584
2449,503.0,22_42_48_100635
2450,513.0,22_42_48_100668
2451,504.0,22_42_48_100717
2452,503.0,22_42_48_100751
2453,505.0,22_42_48_100802
2454,514.0,22_42_48_100836
2455,504.0,22_42_48_100869
2456,504.0,22_42_48_100918
2457,504.0,22_42_48_100952
2458,504.0,22_42_48_101002
2459,504.0,22_42_48_101035
2460,503.0,22_42_49_101068
2461,504.0,22_42_49_101118
2462,504.0,22_42_49_101152
2463,504.0,22_42_49_101201
2464,503.0,22_42_49_101234
2465,502.0,22_42_49_101285
2466,509.0,22_42_49_101335
2467,504.0,22_42_49_101351
2468,501.0,22_42_49_101402
2469,501.0,22_42_49_101438
2470,510.0,22_42_49_101489
2471,501.0,22_42_49_101538
2472,501.0,22_42_49_101556
2473,505.0,22_42_49_101604
2474,508.0,22_42_49_101639
2475,501.0,22_42_49_101690
2476,501.0,22_42_49_101740
2477,507.0,22_42_49_101757
2478,504.0,22_42_49_101807
2479,510.0,22_42_49_101839
2480,502.0,22_42_49_101878
2481,502.0,22_42_49_101929
2482,504.0,22_42_49_101962
2483,503.0,22_42_49_102012
2484,503.0,22_42_49_102044
2485,505.0,22_42_50_102078
2486,504.0,22_42_50_102129
2487,503.0,22_42_50_102162
2488,503.0,22_42_50_102210
2489,504.0,22_42_50_102244
2490,503.0,22_42_50_102295
2491,503.0,22_42_50_102328
2492,504.0,22_42_50_102378
2493,504.0,22_42_50_102413
2494,503.0,22_42_50_102447
2495,503.0,22_42_50_102482
2496,504.0,22_42_50_102532
2497,503.0,22_42_50_102566
2498,504.0,22_42_50_102613
2499,503.0,22_42_50_102651
2500,502.0,22_42_50_102684
2501,502.0,22_42_50_102735
2502,502.0,22_42_50_102768
2503,501.0,22_42_50_102818
2504,506.0,22_42_50_102851
2505,502.0,22_42_50_102902
2506,501.0,22_42_50_102935
2507,507.0,22_42_50_102968
2508,502.0,22_42_50_103017
2509,501.0,22_42_50_103051
2510,501.0,22_42_51_103101
2511,501.0,22_42_51_103151
2512,502.0,22_42_51_103187
2513,502.0,22_42_51_103221
2514,502.0,22_42_51_103254
2515,503.0,22_42_51_103304
2516,503.0,22_42_51_103353
2517,502.0,22_42_51_103389
2518,502.0,22_42_51_103422
2519,503.0,22_42_51_103456
2520,503.0,22_42_51_103507
2521,503.0,22_42_51_103540
2522,503.0,22_42_51_103588
2523,504.0,22_42_51_103627
2524,510.0,22_42_51_103661
2525,505.0,22_42_51_103695
2526,514.0,22_42_51_103745
2527,503.0,22_42_51_103793
2528,504.0,22_42_51_103843
2529,504.0,22_42_51_103859
2530,504.0,22_42_51_103908
2531,503.0,22_42_51_103941
2532,505.0,22_42_51_103992
2533,504.0,22_42_51_104024
2534,502.0,22_42_52_104075
2535,501.0,22_42_52_104107
2536,512.0,22_42_52_104156
2537,501.0,22_42_52_104189
2538,501.0,22_42_52_104223
2539,502.0,22_42_52_104274
2540,500.0,22_42_52_104308
2541,502.0,22_42_52_104356
2542,505.0,22_42_52_104390
2543,502.0,22_42_52_104423
2544,502.0,22_42_52_104474
2545,501.0,22_42_52_104507
2546,502.0,22_42_52_104556
2547,502.0,22_42_52_104606
2548,502.0,22_42_52_104637
2549,502.0,22_42_52_104671
2550,502.0,22_42_52_104721
2551,503.0,22_42_52_104754
2552,503.0,22_42_52_104787
2553,503.0,22_42_52_104836
2554,503.0,22_42_52_104870
2555,504.0,22_42_52_104920
2556,506.0,22_42_52_104953
2557,504.0,22_42_52_104987
2558,503.0,22_42_52_105035
2559,506.0,22_42_53_105070
2560,506.0,22_42_53_105119
2561,503.0,22_42_53_105153
2562,504.0,22_42_53_105203
2563,503.0,22_42_53_105235
2564,503.0,22_42_53_105285
2565,505.0,22_42_53_105319
2566,502.0,22_42_53_105352
2567,512.0,22_42_53_105402
2568,501.0,22_42_53_105434
2569,501.0,22_42_53_105485
2570,511.0,22_42_53_105518
2571,502.0,22_42_53_105567
2572,502.0,22_42_53_105601
2573,500.0,22_42_53_105651
2574,501.0,22_42_53_105684
2575,501.0,22_42_53_105732
2576,501.0,22_42_53_105763
2577,502.0,22_42_53_105814
2578,511.0,22_42_53_105847
2579,502.0,22_42_53_105879
2580,502.0,22_42_53_105928
2581,504.0,22_42_53_105961
2582,508.0,22_42_53_106012
2583,507.0,22_42_53_106045
2584,503.0,22_42_54_106095
2585,504.0,22_42_54_106130
2586,514.0,22_42_54_106162
2587,504.0,22_42_54_106212
2588,509.0,22_42_54_106262
2589,504.0,22_42_54_106293
2590,503.0,22_42_54_106327
2591,504.0,22_42_54_106377
2592,506.0,22_42_54_106410
2593,504.0,22_42_54_106443
2594,505.0,22_42_54_106492
2595,511.0,22_42_54_106525
2596,503.0,22_42_54_106576
2597,503.0,22_42_54_106609
2598,502.0,22_42_54_106658
2599,511.0,22_42_54_106691
2600,503.0,22_42_54_106726
2601,501.0,22_42_54_106776
2602,504.0,22_42_54_106810
2603,501.0,22_42_54_106860
2604,501.0,22_42_54_106901
2605,502.0,22_42_54_106934
2606,502.0,22_42_54_106986
2607,501.0,22_42_54_107018
2608,508.0,22_42_54_107051
2609,502.0,22_42_55_107100
2610,502.0,22_42_55_107134
2611,502.0,22_42_55_107185
2612,502.0,22_42_55_107218
2613,502.0,22_42_55_107266
2614,503.0,22_42_55_107303
2615,504.0,22_42_55_107336
2616,503.0,22_42_55_107387
2617,503.0,22_42_55_107420
2618,503.0,22_42_55_107469
2619,503.0,22_42_55_107505
2620,504.0,22_42_55_107538
2621,509.0,22_42_55_107606
2622,504.0,22_42_55_107623
2623,503.0,22_42_55_107674
2624,504.0,22_42_55_107713
2625,503.0,22_42_55_107747
2626,503.0,22_42_55_107781
2627,503.0,22_42_55_107831
2628,512.0,22_42_55_107879
2629,502.0,22_42_55_107916
2630,502.0,22_42_55_107949
2631,510.0,22_42_55_107983
2632,507.0,22_42_55_108034
2633,501.0,22_42_56_108067
2634,501.0,22_42_56_108117
2635,502.0,22_42_56_108150
2636,501.0,22_42_56_108183
2637,501.0,22_42_56_108233
2638,502.0,22_42_56_108268
2639,501.0,22_42_56_108302
2640,501.0,22_42_56_108369
2641,501.0,22_42_56_108386
2642,503.0,22_42_56_108436
2643,502.0,22_42_56_108470
2644,502.0,22_42_56_108506
2645,502.0,22_42_56_108573
2646,502.0,22_42_56_108590
2647,503.0,22_42_56_108638
2648,503.0,22_42_56_108686
2649,503.0,22_42_56_108717
2650,505.0,22_42_56_108752
2651,508.0,22_42_56_108801
2652,510.0,22_42_56_108835
2653,504.0,22_42_56_108868
2654,505.0,22_42_56_108917
2655,504.0,22_42_56_108951
2656,503.0,22_42_56_109001
2657,504.0,22_42_56_109034
2658,503.0,22_42_57_109084
2659,512.0,22_42_57_109116
2660,504.0,22_42_57_109150
2661,502.0,22_42_57_109201
2662,503.0,22_42_57_109235
2663,502.0,22_42_57_109284
2664,501.0,22_42_57_109317
2665,509.0,22_42_57_109368
2666,503.0,22_42_57_109400
2667,501.0,22_42_57_109447
2668,502.0,22_42_57_109480
2669,502.0,22_42_57_109531
2670,501.0,22_42_57_109564
2671,501.0,22_42_57_109614
2672,501.0,22_42_57_109646
2673,501.0,22_42_57_109680
2674,502.0,22_42_57_109730
2675,503.0,22_42_57_109763
2676,504.0,22_42_57_109796
2677,502.0,22_42_57_109845
2678,503.0,22_42_57_109879
2679,505.0,22_42_57_109929
2680,504.0,22_42_57_109962
2681,504.0,22_42_57_110012
2682,504.0,22_42_57_110044
2683,504.0,22_42_58_110079
2684,504.0,22_42_58_110129
2685,503.0,22_42_58_110163
2686,503.0,22_42_58_110213
2687,512.0,22_42_58_110245
2688,514.0,22_42_58_110295
2689,504.0,22_42_58_110329
2690,504.0,22_42_58_110361
2691,503.0,22_42_58_110417
2692,504.0,22_42_58_110450
2693,502.0,22_42_58_110501
2694,502.0,22_42_58_110534
2695,510.0,22_42_58_110583
2696,509.0,22_42_58_110616
2697,501.0,22_42_58_110649
2698,501.0,22_42_58_110700
2699,508.0,22_42_58_110733
2700,501.0,22_42_58_110783
2701,501.0,22_42_58_110815
2702,506.0,22_42_58_110851
2703,502.0,22_42_58_110900
2704,502.0,22_42_58_110933
2705,511.0,22_42_58_110983
2706,508.0,22_42_58_111015
2707,502.0,22_42_59_111066
2708,503.0,22_42_59_111099
2709,507.0,22_42_59_111132
2710,502.0,22_42_59_111180
2711,506.0,22_42_59_111213
2712,512.0,22_42_59_111263
2713,511.0,22_42_59_111296
2714,504.0,22_42_59_111347
2715,507.0,22_42_59_111380
2716,513.0,22_42_59_111414
2717,505.0,22_42_59_111463
2718,511.0,22_42_59_111497
2719,504.0,22_42_59_111547
2720,506.0,22_42_59_111595
2721,504.0,22_42_59_111613
2722,506.0,22_42_59_111663
2723,504.0,22_42_59_111697
2724,503.0,22_42_59_111746
2725,503.0,22_42_59_111777
2726,503.0,22_42_59_111828
2727,502.0,22_42_59_111861
2728,502.0,22_42_59_111910
2729,509.0,22_42_59_111943
2730,505.0,22_42_59_111994
2731,501.0,22_42_59_112027
2732,501.0,22_42_59_112060
2733,501.0,22_43_0_112110
2734,501.0,22_43_0_112143
2735,500.0,22_43_0_112192
2736,506.0,22_43_0_112241
2737,502.0,22_43_0_112280
2738,502.0,22_43_0_112313
2739,507.0,22_43_0_112346
2740,502.0,22_43_0_112394
2741,502.0,22_43_0_112431
2742,506.0,22_43_0_112464
2743,512.0,22_43_0_112532
2744,503.0,22_43_0_112549
2745,509.0,22_43_0_112600
2746,506.0,22_43_0_112636
2747,510.0,22_43_0_112670
2748,504.0,22_43_0_112721
2749,503.0,22_43_0_112769
2750,504.0,22_43_0_112787
2751,504.0,22_43_0_112838
2752,503.0,22_43_0_112875
2753,504.0,22_43_0_112908
2754,503.0,22_43_0_112959
2755,503.0,22_43_0_113007
2756,503.0,22_43_0_113044
