position,GSR_Reading,Time_Stamp
0,477.0,16_49_29_572
1,586.0,16_49_29_589
2,613.0,16_49_29_605
3,544.0,16_49_29_622
4,519.0,16_49_29_638
5,441.0,16_49_29_655
6,375.0,16_49_29_672
7,317.0,16_49_29_688
8,0.0,16_49_29_706
9,29.0,16_49_29_722
10,29.0,16_49_29_738
11,29.0,16_49_29_755
12,29.0,16_49_29_772
13,386.0,16_49_29_789
14,470.0,16_49_29_805
15,549.0,16_49_29_822
16,577.0,16_49_29_839
17,586.0,16_49_29_856
18,613.0,16_49_29_872
19,544.0,16_49_29_889
20,519.0,16_49_29_905
21,441.0,16_49_29_922
22,375.0,16_49_29_940
23,317.0,16_49_29_955
24,0.0,16_49_29_972
25,29.0,16_49_29_989
26,29.0,16_49_29_1005
27,29.0,16_49_29_1022
28,29.0,16_49_29_1039
29,386.0,16_49_29_1055
30,470.0,16_49_29_1072
31,549.0,16_49_29_1089
32,577.0,16_49_29_1105
33,586.0,16_49_29_1121
34,613.0,16_49_29_1138
35,544.0,16_49_29_1155
36,519.0,16_49_29_1172
37,441.0,16_49_29_1188
38,375.0,16_49_29_1205
39,317.0,16_49_29_1222
40,0.0,16_49_29_1239
41,29.0,16_49_29_1255
42,29.0,16_49_29_1272
43,29.0,16_49_29_1288
44,29.0,16_49_29_1305
45,386.0,16_49_29_1322
46,470.0,16_49_29_1338
47,549.0,16_49_29_1355
48,577.0,16_49_29_1371
49,586.0,16_49_29_1388
50,613.0,16_49_29_1405
51,544.0,16_49_29_1422
52,519.0,16_49_29_1439
53,441.0,16_49_29_1456
54,375.0,16_49_29_1471
55,317.0,16_49_29_1489
56,211.0,16_49_30_1922
57,177.0,16_49_30_1955
58,171.0,16_49_30_1989
59,184.0,16_49_30_2038
60,183.0,16_49_30_2072
61,167.0,16_49_30_2121
62,144.0,16_49_30_2157
63,154.0,16_49_30_2205
64,161.0,16_49_30_2239
65,73.0,16_49_30_2273
66,43.0,16_49_30_2322
67,33.0,16_49_30_2356
68,30.0,16_49_30_2405
69,29.0,16_49_30_2438
70,29.0,16_49_30_2472
71,29.0,16_49_30_2522
72,29.0,16_49_31_2555
73,36.0,16_49_31_2605
74,51.0,16_49_31_2639
75,73.0,16_49_31_2689
76,91.0,16_49_31_2722
77,134.0,16_49_31_2755
78,199.0,16_49_31_2805
79,175.0,16_49_31_2838
80,219.0,16_49_31_2888
81,212.0,16_49_31_2922
82,193.0,16_49_31_2972
83,183.0,16_49_31_3005
84,161.0,16_49_31_3055
85,157.0,16_49_31_3089
86,154.0,16_49_31_3122
87,158.0,16_49_31_3172
88,174.0,16_49_31_3206
89,181.0,16_49_31_3255
90,182.0,16_49_31_3289
91,170.0,16_49_31_3338
92,161.0,16_49_31_3372
93,169.0,16_49_31_3405
94,175.0,16_49_31_3455
95,77.0,16_49_31_3489
96,44.0,16_49_31_3539
97,33.0,16_49_32_3572
98,30.0,16_49_32_3622
99,29.0,16_49_32_3656
100,29.0,16_49_32_3689
101,28.0,16_49_32_3738
102,28.0,16_49_32_3772
103,43.0,16_49_32_3822
104,56.0,16_49_32_3855
105,78.0,16_49_32_3889
106,111.0,16_49_32_3938
107,154.0,16_49_32_3972
108,175.0,16_49_32_4022
109,209.0,16_49_32_4055
110,314.0,16_49_32_4105
111,332.0,16_49_32_4139
112,249.0,16_49_32_4189
113,203.0,16_49_32_4222
114,184.0,16_49_32_4256
115,188.0,16_49_32_4305
116,179.0,16_49_32_4339
117,170.0,16_49_32_4389
118,179.0,16_49_32_4422
119,191.0,16_49_32_4472
120,194.0,16_49_32_4505
121,178.0,16_49_33_4556
122,168.0,16_49_33_4589
123,175.0,16_49_33_4622
124,181.0,16_49_33_4672
125,79.0,16_49_33_4706
126,45.0,16_49_33_4755
127,33.0,16_49_33_4789
128,30.0,16_49_33_4838
129,29.0,16_49_33_4872
130,29.0,16_49_33_4905
131,35.0,16_49_33_4956
132,79.0,16_49_33_4988
133,80.0,16_49_33_5038
134,96.0,16_49_33_5072
135,95.0,16_49_33_5122
136,104.0,16_49_33_5155
137,154.0,16_49_33_5188
138,211.0,16_49_33_5239
139,245.0,16_49_33_5272
140,284.0,16_49_33_5322
141,291.0,16_49_33_5355
142,255.0,16_49_33_5405
143,232.0,16_49_33_5438
144,192.0,16_49_33_5472
145,177.0,16_49_33_5522
146,168.0,16_49_34_5555
147,171.0,16_49_34_5606
148,187.0,16_49_34_5638
149,197.0,16_49_34_5688
150,185.0,16_49_34_5722
151,165.0,16_49_34_5772
152,141.0,16_49_34_5806
153,79.0,16_49_34_5838
154,59.0,16_49_34_5889
155,38.0,16_49_34_5922
156,32.0,16_49_34_5972
157,29.0,16_49_34_6006
158,29.0,16_49_34_6055
159,28.0,16_49_34_6088
160,29.0,16_49_34_6122
161,29.0,16_49_34_6172
162,28.0,16_49_34_6205
163,35.0,16_49_34_6255
164,46.0,16_49_34_6288
165,65.0,16_49_34_6339
166,77.0,16_49_34_6372
167,106.0,16_49_34_6406
168,135.0,16_49_34_6456
169,176.0,16_49_34_6489
170,195.0,16_49_34_6538
171,181.0,16_49_35_6572
172,169.0,16_49_35_6605
173,155.0,16_49_35_6656
174,154.0,16_49_35_6689
175,152.0,16_49_35_6739
176,156.0,16_49_35_6772
177,165.0,16_49_35_6822
178,181.0,16_49_35_6855
179,189.0,16_49_35_6906
180,179.0,16_49_35_6939
181,169.0,16_49_35_6973
182,176.0,16_49_35_7023
183,182.0,16_49_35_7056
184,188.0,16_49_35_7106
185,82.0,16_49_35_7138
186,46.0,16_49_35_7189
187,34.0,16_49_35_7222
188,30.0,16_49_35_7256
189,29.0,16_49_35_7305
190,28.0,16_49_35_7339
191,28.0,16_49_35_7388
192,28.0,16_49_35_7422
193,36.0,16_49_35_7472
194,58.0,16_49_35_7506
195,71.0,16_49_36_7693
196,82.0,16_49_36_7735
197,116.0,16_49_36_7752
198,177.0,16_49_36_7769
199,223.0,16_49_36_7786
200,217.0,16_49_36_7802
201,258.0,16_49_36_7819
202,235.0,16_49_36_7835
203,190.0,16_49_36_7869
204,167.0,16_49_36_7919
205,149.0,16_49_36_7952
206,151.0,16_49_36_7986
207,157.0,16_49_36_8036
208,169.0,16_49_36_8068
209,184.0,16_49_36_8119
210,195.0,16_49_36_8152
211,185.0,16_49_36_8205
212,173.0,16_49_36_8236
213,180.0,16_49_36_8269
214,186.0,16_49_36_8319
215,191.0,16_49_36_8352
216,82.0,16_49_36_8402
217,46.0,16_49_36_8435
218,34.0,16_49_36_8469
219,31.0,16_49_36_8519
220,29.0,16_49_37_8552
221,28.0,16_49_37_8602
222,109.0,16_49_37_8636
223,69.0,16_49_37_8686
224,62.0,16_49_37_8718
225,154.0,16_49_37_8769
226,231.0,16_49_37_8802
227,295.0,16_49_37_8852
228,387.0,16_49_37_8885
229,406.0,16_49_37_8918
230,408.0,16_49_37_8969
231,409.0,16_49_37_9002
232,386.0,16_49_37_9052
233,332.0,16_49_37_9085
234,225.0,16_49_37_9135
235,184.0,16_49_37_9169
236,153.0,16_49_37_9202
237,144.0,16_49_37_9252
238,150.0,16_49_37_9286
239,168.0,16_49_37_9335
240,184.0,16_49_37_9369
241,195.0,16_49_37_9418
242,182.0,16_49_37_9452
243,173.0,16_49_37_9487
244,179.0,16_49_37_9536
245,186.0,16_49_38_9569
246,82.0,16_49_38_9618
247,53.0,16_49_38_9652
248,36.0,16_49_38_9702
249,31.0,16_49_38_9736
250,29.0,16_49_38_9910
251,28.0,16_49_38_9929
252,28.0,16_49_38_9946
253,246.0,16_49_38_9964
254,418.0,16_49_38_9979
255,483.0,16_49_38_9996
256,506.0,16_49_38_10029
257,589.0,16_49_38_10063
258,550.0,16_49_38_10096
259,542.0,16_49_38_10146
260,529.0,16_49_38_10179
261,478.0,16_49_38_10229
262,403.0,16_49_38_10263
263,342.0,16_49_38_10296
264,275.0,16_49_38_10346
265,233.0,16_49_38_10379
266,209.0,16_49_38_10429
267,192.0,16_49_38_10463
268,172.0,16_49_38_10513
269,180.0,16_49_38_10546
270,188.0,16_49_39_10579
271,199.0,16_49_39_10629
272,184.0,16_49_39_10662
273,173.0,16_49_39_10713
274,181.0,16_49_39_10746
275,187.0,16_49_39_10796
276,192.0,16_49_39_10830
277,83.0,16_49_39_10863
278,46.0,16_49_39_10913
279,34.0,16_49_39_10946
280,31.0,16_49_39_10996
281,30.0,16_49_39_11029
282,29.0,16_49_39_11079
283,29.0,16_49_39_11112
284,432.0,16_49_39_11162
285,550.0,16_49_39_11196
286,583.0,16_49_39_11246
287,586.0,16_49_39_11280
288,582.0,16_49_39_11313
289,599.0,16_49_39_11362
290,593.0,16_49_39_11396
291,283.0,16_49_39_11446
292,170.0,16_49_39_11479
293,128.0,16_49_39_11513
294,137.0,16_49_40_11563
295,121.0,16_49_40_11596
296,119.0,16_49_40_11646
297,111.0,16_49_40_11679
298,93.0,16_49_40_11730
299,109.0,16_49_40_11763
300,111.0,16_49_40_11796
301,113.0,16_49_40_11846
302,122.0,16_49_40_11880
303,130.0,16_49_40_11930
304,132.0,16_49_40_11963
305,143.0,16_49_40_12014
306,152.0,16_49_40_12047
307,160.0,16_49_40_12081
308,167.0,16_49_40_12129
309,75.0,16_49_40_12163
310,44.0,16_49_40_12212
311,33.0,16_49_40_12246
312,30.0,16_49_40_12279
313,29.0,16_49_40_12330
314,28.0,16_49_40_12363
315,29.0,16_49_40_12413
316,28.0,16_49_40_12446
317,34.0,16_49_40_12496
318,43.0,16_49_40_12529
319,54.0,16_49_41_12578
320,75.0,16_49_41_12618
321,121.0,16_49_41_12652
322,175.0,16_49_41_12702
323,244.0,16_49_41_12735
324,280.0,16_49_41_12785
325,253.0,16_49_41_12818
326,239.0,16_49_41_12852
327,211.0,16_49_41_12901
328,190.0,16_49_41_12935
329,165.0,16_49_41_12985
330,161.0,16_49_41_13018
331,161.0,16_49_41_13068
332,174.0,16_49_41_13101
333,191.0,16_49_41_13135
334,199.0,16_49_41_13185
335,186.0,16_49_41_13219
336,169.0,16_49_41_13268
337,157.0,16_49_41_13302
338,165.0,16_49_41_13352
339,101.0,16_49_41_13385
340,63.0,16_49_41_13418
341,59.0,16_49_41_13469
342,88.0,16_49_41_13501
343,59.0,16_49_42_13552
344,104.0,16_49_42_13585
345,86.0,16_49_42_13618
346,123.0,16_49_42_13668
347,258.0,16_49_42_13702
348,343.0,16_49_42_13752
349,365.0,16_49_42_13785
350,389.0,16_49_42_13835
351,446.0,16_49_42_13869
352,472.0,16_49_42_13918
353,469.0,16_49_42_13952
354,447.0,16_49_42_14001
355,412.0,16_49_42_14035
356,358.0,16_49_42_14069
357,308.0,16_49_42_14118
358,260.0,16_49_42_14151
359,227.0,16_49_42_14202
360,205.0,16_49_42_14235
361,194.0,16_49_42_14285
362,194.0,16_49_42_14318
363,199.0,16_49_42_14351
364,199.0,16_49_42_14402
365,175.0,16_49_42_14435
366,160.0,16_49_42_14486
367,168.0,16_49_42_14518
368,166.0,16_49_43_14568
369,196.0,16_49_43_14601
370,244.0,16_49_43_14635
371,298.0,16_49_43_14685
372,353.0,16_49_43_14718
373,402.0,16_49_43_14769
374,445.0,16_49_43_14802
375,483.0,16_49_43_14852
376,509.0,16_49_43_14885
377,517.0,16_49_43_14935
378,519.0,16_49_43_14969
379,520.0,16_49_43_15002
380,531.0,16_49_43_15052
381,534.0,16_49_43_15085
382,514.0,16_49_43_15135
383,480.0,16_49_43_15169
384,432.0,16_49_43_15218
385,376.0,16_49_43_15252
386,317.0,16_49_43_15285
387,267.0,16_49_43_15335
388,236.0,16_49_43_15368
389,205.0,16_49_43_15418
390,188.0,16_49_43_15452
391,188.0,16_49_43_15485
392,182.0,16_49_43_15535
393,181.0,16_49_44_15568
394,158.0,16_49_44_15619
395,142.0,16_49_44_15652
396,142.0,16_49_44_15702
397,83.0,16_49_44_15735
398,46.0,16_49_44_15768
399,34.0,16_49_44_15819
400,30.0,16_49_44_15852
401,195.0,16_49_44_15901
402,465.0,16_49_44_15935
403,580.0,16_49_44_15985
404,626.0,16_49_44_16018
405,644.0,16_49_44_16069
406,651.0,16_49_44_16102
407,654.0,16_49_44_16152
408,655.0,16_49_44_16185
409,656.0,16_49_44_16218
410,657.0,16_49_44_16268
411,656.0,16_49_44_16302
412,655.0,16_49_44_16352
413,621.0,16_49_44_16385
414,508.0,16_49_44_16435
415,235.0,16_49_44_16469
416,137.0,16_49_44_16519
417,142.0,16_49_45_16552
418,132.0,16_49_45_16585
419,130.0,16_49_45_16636
420,165.0,16_49_45_16668
421,207.0,16_49_45_16719
422,207.0,16_49_45_16752
423,219.0,16_49_45_16785
424,185.0,16_49_45_16835
425,147.0,16_49_45_16869
426,156.0,16_49_45_16919
427,164.0,16_49_45_16952
428,171.0,16_49_45_17001
429,76.0,16_49_45_17036
430,44.0,16_49_45_17068
431,33.0,16_49_45_17119
432,30.0,16_49_45_17152
433,29.0,16_49_45_17202
434,29.0,16_49_45_17235
435,29.0,16_49_45_17285
436,29.0,16_49_45_17318
437,29.0,16_49_45_17352
438,29.0,16_49_45_17402
439,29.0,16_49_45_17435
440,28.0,16_49_45_17485
441,32.0,16_49_45_17519
442,47.0,16_49_46_17568
443,87.0,16_49_46_17602
444,120.0,16_49_46_17645
445,140.0,16_49_46_17678
446,149.0,16_49_46_17728
447,145.0,16_49_46_17761
448,135.0,16_49_46_17812
449,86.0,16_49_46_17845
450,68.0,16_49_46_17878
451,79.0,16_49_46_17928
452,68.0,16_49_46_17962
453,75.0,16_49_46_18012
454,86.0,16_49_46_18045
455,106.0,16_49_46_18095
456,151.0,16_49_46_18128
457,170.0,16_49_46_18178
458,166.0,16_49_46_18212
459,151.0,16_49_46_18245
460,160.0,16_49_46_18296
461,167.0,16_49_46_18330
462,174.0,16_49_46_18379
463,180.0,16_49_46_18411
464,79.0,16_49_46_18444
465,45.0,16_49_46_18494
466,33.0,16_49_46_18528
467,30.0,16_49_47_18578
468,29.0,16_49_47_18612
469,29.0,16_49_47_18661
470,28.0,16_49_47_18695
471,29.0,16_49_47_18745
472,28.0,16_49_47_18779
473,28.0,16_49_47_18812
474,28.0,16_49_47_18861
475,28.0,16_49_47_18895
476,28.0,16_49_47_18945
477,45.0,16_49_47_18978
478,99.0,16_49_47_19028
479,110.0,16_49_47_19061
480,128.0,16_49_47_19112
481,182.0,16_49_47_19145
482,172.0,16_49_47_19178
483,185.0,16_49_47_19228
484,189.0,16_49_47_19261
485,194.0,16_49_47_19311
486,187.0,16_49_47_19345
487,176.0,16_49_47_19378
488,178.0,16_49_47_19428
489,182.0,16_49_47_19462
490,192.0,16_49_47_19511
491,199.0,16_49_47_19545
492,198.0,16_49_48_19595
493,181.0,16_49_48_19628
494,173.0,16_49_48_19661
495,179.0,16_49_48_19712
496,185.0,16_49_48_19744
497,80.0,16_49_48_19794
498,45.0,16_49_48_19829
499,33.0,16_49_48_19878
500,30.0,16_49_48_19911
501,29.0,16_49_48_19945
502,29.0,16_49_48_19995
503,28.0,16_49_48_20029
504,28.0,16_49_48_20078
505,49.0,16_49_48_20112
506,194.0,16_49_48_20161
507,298.0,16_49_48_20195
508,344.0,16_49_48_20245
509,338.0,16_49_48_20278
510,373.0,16_49_48_20311
511,343.0,16_49_48_20361
512,344.0,16_49_48_20394
513,335.0,16_49_48_20445
514,316.0,16_49_48_20478
515,295.0,16_49_48_20529
516,265.0,16_49_49_20561
517,231.0,16_49_49_20595
518,212.0,16_49_49_20645
519,194.0,16_49_49_20678
520,186.0,16_49_49_20728
521,186.0,16_49_49_20761
522,192.0,16_49_49_20811
523,199.0,16_49_49_20845
524,202.0,16_49_49_20895
525,183.0,16_49_49_20928
526,170.0,16_49_49_20962
527,177.0,16_49_49_21011
528,183.0,16_49_49_21045
529,101.0,16_49_49_21095
530,52.0,16_49_49_21128
531,36.0,16_49_49_21162
532,31.0,16_49_49_21211
533,29.0,16_49_49_21245
534,29.0,16_49_49_21295
535,28.0,16_49_49_21328
536,28.0,16_49_49_21378
537,36.0,16_49_49_21412
538,52.0,16_49_49_21462
539,65.0,16_49_49_21495
540,92.0,16_49_49_21528
541,106.0,16_49_50_21578
542,132.0,16_49_50_21611
543,177.0,16_49_50_21662
544,227.0,16_49_50_21694
545,255.0,16_49_50_21745
546,260.0,16_49_50_21778
547,259.0,16_49_50_21812
548,232.0,16_49_50_21862
549,218.0,16_49_50_21895
550,216.0,16_49_50_21945
551,212.0,16_49_50_21978
552,198.0,16_49_50_22028
553,182.0,16_49_50_22061
554,189.0,16_49_50_22095
555,198.0,16_49_50_22145
556,203.0,16_49_50_22178
557,188.0,16_49_50_22229
558,158.0,16_49_50_22262
559,160.0,16_49_50_22312
560,168.0,16_49_50_22344
561,179.0,16_49_50_22395
562,117.0,16_49_50_22428
563,164.0,16_49_50_22461
564,191.0,16_49_50_22511
565,324.0,16_49_50_22545
566,390.0,16_49_51_22595
567,437.0,16_49_51_22628
568,499.0,16_49_51_22678
569,514.0,16_49_51_22711
570,394.0,16_49_51_22745
571,271.0,16_49_51_22795
572,222.0,16_49_51_22828
573,199.0,16_49_51_22878
574,227.0,16_49_51_22911
575,411.0,16_49_51_22962
576,392.0,16_49_51_22995
577,356.0,16_49_51_23028
578,281.0,16_49_51_23079
579,219.0,16_49_51_23111
580,177.0,16_49_51_23161
581,160.0,16_49_51_23195
582,158.0,16_49_51_23245
583,162.0,16_49_51_23278
584,171.0,16_49_51_23329
585,185.0,16_49_51_23362
586,193.0,16_49_51_23411
587,190.0,16_49_51_23445
588,177.0,16_49_51_23479
589,160.0,16_49_51_23528
590,168.0,16_49_52_23562
591,156.0,16_49_52_23612
592,199.0,16_49_52_23645
593,254.0,16_49_52_23695
594,309.0,16_49_52_23729
595,366.0,16_49_52_23761
596,345.0,16_49_52_23812
597,424.0,16_49_52_23845
598,475.0,16_49_52_23895
599,507.0,16_49_52_23929
600,512.0,16_49_52_23962
601,520.0,16_49_52_24011
602,527.0,16_49_52_24045
603,556.0,16_49_52_24095
604,555.0,16_49_52_24128
605,534.0,16_49_52_24179
606,458.0,16_49_52_24212
607,404.0,16_49_52_24262
608,378.0,16_49_52_24295
609,320.0,16_49_52_24328
610,277.0,16_49_52_24378
611,239.0,16_49_52_24412
612,207.0,16_49_52_24462
613,188.0,16_49_52_24495
614,178.0,16_49_52_24545
615,183.0,16_49_53_24579
616,186.0,16_49_53_24628
617,166.0,16_49_53_24662
618,144.0,16_49_53_24695
619,136.0,16_49_53_24745
620,150.0,16_49_53_24779
621,180.0,16_49_53_24828
622,227.0,16_49_53_24862
623,281.0,16_49_53_24912
624,334.0,16_49_53_24945
625,383.0,16_49_53_24978
626,422.0,16_49_53_25028
627,459.0,16_49_53_25061
628,491.0,16_49_53_25111
629,510.0,16_49_53_25145
630,517.0,16_49_53_25195
631,515.0,16_49_53_25228
632,526.0,16_49_53_25262
633,537.0,16_49_53_25311
634,531.0,16_49_53_25345
635,509.0,16_49_53_25395
636,470.0,16_49_53_25429
637,420.0,16_49_53_25479
638,365.0,16_49_53_25511
639,307.0,16_49_54_25561
640,258.0,16_49_54_25595
641,224.0,16_49_54_25628
642,199.0,16_49_54_25678
643,184.0,16_49_54_25712
644,184.0,16_49_54_25761
645,180.0,16_49_54_25795
646,174.0,16_49_54_25828
647,156.0,16_49_54_25879
648,137.0,16_49_54_25912
649,140.0,16_49_54_25962
650,162.0,16_49_54_25995
651,199.0,16_49_54_26045
652,253.0,16_49_54_26079
653,306.0,16_49_54_26129
654,356.0,16_49_54_26162
655,400.0,16_49_54_26195
656,439.0,16_49_54_26245
657,476.0,16_49_54_26279
658,497.0,16_49_54_26329
659,513.0,16_49_54_26362
660,518.0,16_49_54_26411
661,510.0,16_49_54_26445
662,536.0,16_49_54_26496
663,544.0,16_49_54_26528
664,527.0,16_49_55_26579
665,494.0,16_49_55_26612
666,432.0,16_49_55_26645
667,373.0,16_49_55_26696
668,325.0,16_49_55_26729
669,277.0,16_49_55_26778
670,240.0,16_49_55_26811
671,213.0,16_49_55_26845
672,198.0,16_49_55_26895
673,183.0,16_49_55_26929
674,190.0,16_49_55_26978
675,178.0,16_49_55_27012
676,170.0,16_49_55_27062
677,158.0,16_49_55_27095
678,147.0,16_49_55_27128
679,119.0,16_49_55_27179
680,82.0,16_49_55_27211
681,81.0,16_49_55_27261
682,240.0,16_49_55_27295
683,140.0,16_49_55_27345
684,153.0,16_49_55_27378
685,191.0,16_49_55_27429
686,146.0,16_49_55_27462
687,385.0,16_49_55_27496
688,472.0,16_49_55_27545
689,347.0,16_49_56_27578
690,458.0,16_49_56_27629
691,393.0,16_49_56_27662
692,397.0,16_49_56_27712
693,397.0,16_49_56_27746
694,395.0,16_49_56_27779
695,379.0,16_49_56_27828
696,352.0,16_49_56_27861
697,318.0,16_49_56_27912
698,266.0,16_49_56_27945
699,227.0,16_49_56_27996
700,215.0,16_49_56_28029
701,193.0,16_49_56_28062
702,194.0,16_49_56_28112
703,192.0,16_49_56_28145
704,200.0,16_49_56_28196
705,207.0,16_49_56_28228
706,188.0,16_49_56_28279
707,176.0,16_49_56_28313
708,182.0,16_49_56_28346
709,188.0,16_49_56_28396
710,193.0,16_49_56_28428
711,84.0,16_49_56_28478
712,46.0,16_49_56_28512
713,34.0,16_49_57_28562
714,30.0,16_49_57_28596
715,29.0,16_49_57_28629
716,29.0,16_49_57_28679
717,29.0,16_49_57_28712
718,29.0,16_49_57_28762
719,39.0,16_49_57_28795
720,52.0,16_49_57_28845
721,62.0,16_49_57_28878
722,80.0,16_49_57_28929
723,103.0,16_49_57_28962
724,140.0,16_49_57_28995
725,179.0,16_49_57_29045
726,203.0,16_49_57_29079
727,228.0,16_49_57_29128
728,227.0,16_49_57_29162
729,210.0,16_49_57_29195
730,199.0,16_49_57_29245
731,177.0,16_49_57_29278
732,171.0,16_49_57_29328
733,160.0,16_49_57_29362
734,161.0,16_49_57_29412
735,171.0,16_49_57_29446
736,182.0,16_49_57_29495
737,197.0,16_49_57_29529
738,193.0,16_49_58_29578
739,179.0,16_49_58_29612
740,175.0,16_49_58_29646
741,182.0,16_49_58_29696
742,187.0,16_49_58_29729
743,81.0,16_49_58_29779
744,45.0,16_49_58_29812
745,34.0,16_49_58_29845
746,30.0,16_49_58_29895
747,29.0,16_49_58_29929
748,29.0,16_49_58_29978
749,28.0,16_49_58_30012
750,29.0,16_49_58_30062
751,34.0,16_49_58_30095
752,52.0,16_49_58_30145
753,72.0,16_49_58_30178
754,79.0,16_49_58_30212
755,99.0,16_49_58_30262
756,123.0,16_49_58_30296
757,200.0,16_49_58_30345
758,172.0,16_49_58_30378
759,264.0,16_49_58_30412
760,278.0,16_49_58_30462
761,285.0,16_49_58_30496
762,298.0,16_49_58_30545
763,275.0,16_49_59_30579
764,247.0,16_49_59_30629
765,218.0,16_49_59_30662
766,196.0,16_49_59_30712
767,184.0,16_49_59_30746
768,184.0,16_49_59_30778
769,184.0,16_49_59_30828
770,173.0,16_49_59_30862
771,150.0,16_49_59_30912
772,141.0,16_49_59_30947
773,150.0,16_49_59_30995
774,168.0,16_49_59_31029
775,176.0,16_49_59_31079
776,243.0,16_49_59_31112
777,294.0,16_49_59_31146
778,120.0,16_49_59_31195
779,463.0,16_49_59_31228
780,182.0,16_49_59_31278
781,366.0,16_49_59_31313
782,445.0,16_49_59_31362
783,480.0,16_49_59_31395
784,492.0,16_49_59_31429
785,504.0,16_49_59_31479
786,522.0,16_49_59_31512
787,538.0,16_50_0_31563
788,521.0,16_50_0_31595
789,491.0,16_50_0_31646
790,463.0,16_50_0_31679
791,403.0,16_50_0_31712
792,341.0,16_50_0_31762
793,289.0,16_50_0_31796
794,248.0,16_50_0_31845
795,222.0,16_50_0_31878
796,204.0,16_50_0_31929
797,172.0,16_50_0_31962
798,206.0,16_50_0_32012
799,187.0,16_50_0_32045
800,160.0,16_50_0_32078
801,143.0,16_50_0_32128
802,150.0,16_50_0_32162
803,165.0,16_50_0_32212
804,196.0,16_50_0_32245
805,236.0,16_50_0_32295
806,286.0,16_50_0_32329
807,336.0,16_50_0_32363
808,375.0,16_50_0_32412
809,407.0,16_50_0_32445
810,454.0,16_50_0_32496
811,470.0,16_50_0_32528
812,484.0,16_50_1_32578
813,558.0,16_50_1_32612
814,544.0,16_50_1_32645
815,551.0,16_50_1_32695
816,548.0,16_50_1_32729
817,498.0,16_50_1_32779
818,437.0,16_50_1_32812
819,373.0,16_50_1_32862
820,324.0,16_50_1_32895
821,277.0,16_50_1_32945
822,250.0,16_50_1_32979
823,230.0,16_50_1_33013
824,215.0,16_50_1_33062
825,208.0,16_50_1_33095
826,209.0,16_50_1_33146
827,181.0,16_50_1_33179
828,178.0,16_50_1_33228
829,166.0,16_50_1_33262
830,164.0,16_50_1_33312
831,179.0,16_50_1_33345
832,211.0,16_50_1_33380
833,252.0,16_50_1_33428
834,402.0,16_50_1_33462
835,379.0,16_50_1_33513
836,392.0,16_50_1_33545
837,415.0,16_50_2_33579
838,442.0,16_50_2_33630
839,461.0,16_50_2_33662
840,471.0,16_50_2_33713
841,494.0,16_50_2_33745
842,495.0,16_50_2_33795
843,503.0,16_50_2_33829
844,504.0,16_50_2_33879
845,486.0,16_50_2_33913
846,456.0,16_50_2_33946
847,417.0,16_50_2_33996
848,457.0,16_50_2_34029
849,357.0,16_50_2_34079
850,300.0,16_50_2_34112
851,270.0,16_50_2_34163
852,243.0,16_50_2_34195
853,233.0,16_50_2_34245
854,229.0,16_50_2_34279
855,242.0,16_50_2_34312
856,217.0,16_50_2_34362
857,192.0,16_50_2_34395
858,181.0,16_50_2_34446
859,181.0,16_50_2_34479
860,207.0,16_50_2_34529
861,245.0,16_50_3_34563
862,291.0,16_50_3_34595
863,334.0,16_50_3_34645
864,374.0,16_50_3_34679
865,410.0,16_50_3_34729
866,448.0,16_50_3_34762
867,472.0,16_50_3_34813
868,478.0,16_50_3_34845
869,548.0,16_50_3_34879
870,509.0,16_50_3_34929
871,503.0,16_50_3_34963
872,498.0,16_50_3_35013
873,475.0,16_50_3_35046
874,443.0,16_50_3_35096
875,397.0,16_50_3_35130
876,347.0,16_50_3_35179
877,296.0,16_50_3_35213
878,259.0,16_50_3_35246
879,238.0,16_50_3_35296
880,225.0,16_50_3_35329
881,215.0,16_50_3_35380
882,202.0,16_50_3_35413
883,160.0,16_50_3_35462
884,182.0,16_50_3_35495
885,171.0,16_50_3_35529
886,171.0,16_50_4_35579
887,182.0,16_50_4_35612
888,208.0,16_50_4_35662
889,249.0,16_50_4_35695
890,272.0,16_50_4_35746
891,335.0,16_50_4_35779
892,379.0,16_50_4_35813
893,412.0,16_50_4_35863
894,448.0,16_50_4_35896
895,471.0,16_50_4_35946
896,479.0,16_50_4_35979
897,515.0,16_50_4_36029
898,487.0,16_50_4_36062
899,487.0,16_50_4_36113
900,487.0,16_50_4_36148
901,462.0,16_50_4_36195
902,434.0,16_50_4_36229
903,392.0,16_50_4_36262
904,332.0,16_50_4_36312
905,301.0,16_50_4_36346
906,270.0,16_50_4_36396
907,246.0,16_50_4_36429
908,232.0,16_50_4_36479
909,222.0,16_50_4_36513
910,219.0,16_50_4_36545
911,217.0,16_50_5_36596
912,215.0,16_50_5_36629
913,197.0,16_50_5_36681
914,184.0,16_50_5_36712
915,188.0,16_50_5_36746
916,207.0,16_50_5_36796
917,241.0,16_50_5_36829
918,275.0,16_50_5_36879
919,324.0,16_50_5_36912
920,370.0,16_50_5_36962
921,410.0,16_50_5_36995
922,442.0,16_50_5_37045
923,462.0,16_50_5_37079
924,472.0,16_50_5_37129
925,447.0,16_50_5_37162
926,461.0,16_50_5_37196
927,482.0,16_50_5_37245
928,492.0,16_50_5_37279
929,485.0,16_50_5_37329
930,460.0,16_50_5_37362
931,416.0,16_50_5_37413
932,395.0,16_50_5_37446
933,330.0,16_50_5_37479
934,288.0,16_50_5_37529
935,255.0,16_50_6_37562
936,234.0,16_50_6_37612
937,223.0,16_50_6_37646
938,220.0,16_50_6_37679
939,221.0,16_50_6_37729
940,223.0,16_50_6_37762
941,210.0,16_50_6_37813
942,198.0,16_50_6_37846
943,205.0,16_50_6_37895
944,226.0,16_50_6_37929
945,258.0,16_50_6_37979
946,262.0,16_50_6_38013
947,324.0,16_50_6_38062
948,372.0,16_50_6_38095
949,409.0,16_50_6_38129
950,443.0,16_50_6_38179
951,465.0,16_50_6_38212
952,475.0,16_50_6_38262
953,473.0,16_50_6_38296
954,471.0,16_50_6_38346
955,481.0,16_50_6_38379
956,484.0,16_50_6_38429
957,470.0,16_50_6_38463
958,439.0,16_50_6_38496
959,402.0,16_50_6_38546
960,364.0,16_50_7_38579
961,314.0,16_50_7_38629
962,279.0,16_50_7_38663
963,250.0,16_50_7_38695
964,229.0,16_50_7_38746
965,217.0,16_50_7_38779
966,216.0,16_50_7_38829
967,217.0,16_50_7_38863
968,220.0,16_50_7_38912
969,207.0,16_50_7_38946
970,202.0,16_50_7_38996
971,209.0,16_50_7_39029
972,233.0,16_50_7_39063
973,265.0,16_50_7_39112
974,303.0,16_50_7_39146
975,344.0,16_50_7_39196
976,385.0,16_50_7_39229
977,414.0,16_50_7_39279
978,441.0,16_50_7_39313
979,463.0,16_50_7_39363
980,472.0,16_50_7_39396
981,473.0,16_50_7_39429
982,467.0,16_50_7_39479
983,480.0,16_50_7_39513
984,483.0,16_50_8_39563
985,470.0,16_50_8_39596
986,441.0,16_50_8_39629
987,404.0,16_50_8_39679
988,357.0,16_50_8_39712
989,308.0,16_50_8_39763
990,270.0,16_50_8_39796
991,241.0,16_50_8_39846
992,223.0,16_50_8_39879
993,213.0,16_50_8_39929
994,212.0,16_50_8_39962
995,210.0,16_50_8_39996
996,212.0,16_50_8_40046
997,196.0,16_50_8_40080
998,186.0,16_50_8_40130
999,195.0,16_50_8_40163
1000,217.0,16_50_8_40213
1001,249.0,16_50_8_40246
1002,276.0,16_50_8_40296
1003,303.0,16_50_8_40330
1004,334.0,16_50_8_40363
1005,366.0,16_50_8_40412
1006,397.0,16_50_8_40446
1007,425.0,16_50_8_40496
1008,447.0,16_50_8_40529
1009,462.0,16_50_9_40579
1010,463.0,16_50_9_40613
1011,481.0,16_50_9_40646
1012,496.0,16_50_9_40696
1013,490.0,16_50_9_40729
1014,470.0,16_50_9_40779
1015,438.0,16_50_9_40813
1016,404.0,16_50_9_40863
1017,358.0,16_50_9_40896
1018,317.0,16_50_9_40930
1019,284.0,16_50_9_40980
1020,257.0,16_50_9_41013
1021,237.0,16_50_9_41063
1022,230.0,16_50_9_41096
1023,230.0,16_50_9_41146
1024,234.0,16_50_9_41179
1025,220.0,16_50_9_41229
1026,202.0,16_50_9_41262
1027,189.0,16_50_9_41296
1028,197.0,16_50_9_41346
1029,214.0,16_50_9_41379
1030,250.0,16_50_9_41429
1031,283.0,16_50_9_41462
1032,319.0,16_50_9_41513
1033,354.0,16_50_9_41546
1034,388.0,16_50_10_41579
1035,423.0,16_50_10_41630
1036,445.0,16_50_10_41663
1037,455.0,16_50_10_41713
1038,457.0,16_50_10_41746
1039,467.0,16_50_10_41796
1040,476.0,16_50_10_41830
1041,477.0,16_50_10_41863
1042,459.0,16_50_10_41913
1043,431.0,16_50_10_41946
1044,392.0,16_50_10_41996
1045,352.0,16_50_10_42030
1046,310.0,16_50_10_42079
1047,268.0,16_50_10_42112
1048,251.0,16_50_10_42162
1049,238.0,16_50_10_42196
1050,231.0,16_50_10_42246
1051,234.0,16_50_10_42280
1052,238.0,16_50_10_42312
1053,232.0,16_50_10_42363
1054,229.0,16_50_10_42396
1055,206.0,16_50_10_42446
1056,208.0,16_50_10_42479
1057,221.0,16_50_10_42513
1058,250.0,16_50_11_42563
1059,283.0,16_50_11_42596
1060,318.0,16_50_11_42646
1061,361.0,16_50_11_42679
1062,389.0,16_50_11_42730
1063,420.0,16_50_11_42763
1064,442.0,16_50_11_42796
1065,453.0,16_50_11_42846
1066,458.0,16_50_11_42880
1067,461.0,16_50_11_42929
1068,470.0,16_50_11_42963
1069,485.0,16_50_11_43013
1070,483.0,16_50_11_43046
1071,462.0,16_50_11_43096
1072,433.0,16_50_11_43129
1073,393.0,16_50_11_43180
1074,352.0,16_50_11_43213
1075,292.0,16_50_11_43246
1076,270.0,16_50_11_43296
1077,246.0,16_50_11_43329
1078,231.0,16_50_11_43380
1079,224.0,16_50_11_43413
1080,223.0,16_50_11_43463
1081,228.0,16_50_11_43496
1082,220.0,16_50_11_43530
1083,200.0,16_50_12_43580
1084,187.0,16_50_12_43613
1085,190.0,16_50_12_43663
1086,202.0,16_50_12_43696
1087,230.0,16_50_12_43729
1088,265.0,16_50_12_43779
1089,281.0,16_50_12_43813
1090,337.0,16_50_12_43862
1091,384.0,16_50_12_43896
1092,420.0,16_50_12_43946
1093,441.0,16_50_12_43980
1094,451.0,16_50_12_44029
1095,459.0,16_50_12_44063
1096,492.0,16_50_12_44113
1097,489.0,16_50_12_44147
1098,485.0,16_50_12_44180
1099,469.0,16_50_12_44230
1100,445.0,16_50_12_44263
1101,407.0,16_50_12_44314
1102,357.0,16_50_12_44346
1103,303.0,16_50_12_44396
1104,270.0,16_50_12_44430
1105,247.0,16_50_12_44463
1106,233.0,16_50_12_44513
1107,229.0,16_50_12_44546
1108,230.0,16_50_13_44596
1109,232.0,16_50_13_44629
1110,205.0,16_50_13_44663
1111,209.0,16_50_13_44713
1112,196.0,16_50_13_44746
1113,194.0,16_50_13_44796
1114,211.0,16_50_13_44830
1115,242.0,16_50_13_44880
1116,285.0,16_50_13_44913
1117,343.0,16_50_13_44963
1118,371.0,16_50_13_44996
1119,404.0,16_50_13_45046
1120,438.0,16_50_13_45080
1121,463.0,16_50_13_45113
1122,476.0,16_50_13_45163
1123,476.0,16_50_13_45196
1124,473.0,16_50_13_45246
1125,482.0,16_50_13_45280
1126,477.0,16_50_13_45330
1127,475.0,16_50_13_45363
1128,447.0,16_50_13_45396
1129,412.0,16_50_13_45446
1130,378.0,16_50_13_45479
1131,312.0,16_50_13_45529
1132,289.0,16_50_14_45562
1133,269.0,16_50_14_45614
1134,249.0,16_50_14_45647
1135,230.0,16_50_14_45680
1136,215.0,16_50_14_45730
1137,211.0,16_50_14_45763
1138,207.0,16_50_14_45813
1139,199.0,16_50_14_45846
1140,186.0,16_50_14_45896
1141,179.0,16_50_14_45930
1142,192.0,16_50_14_45980
1143,220.0,16_50_14_46013
1144,258.0,16_50_14_46047
1145,305.0,16_50_14_46096
1146,342.0,16_50_14_46129
1147,384.0,16_50_14_46180
1148,421.0,16_50_14_46213
1149,454.0,16_50_14_46263
1150,479.0,16_50_14_46296
1151,486.0,16_50_14_46347
1152,469.0,16_50_14_46380
1153,472.0,16_50_14_46413
1154,478.0,16_50_14_46463
1155,491.0,16_50_14_46496
1156,474.0,16_50_14_46547
1157,451.0,16_50_15_46580
1158,421.0,16_50_15_46613
1159,393.0,16_50_15_46663
1160,332.0,16_50_15_46696
1161,285.0,16_50_15_46746
1162,251.0,16_50_15_46780
1163,227.0,16_50_15_46829
1164,212.0,16_50_15_46863
1165,203.0,16_50_15_46913
1166,193.0,16_50_15_46947
1167,198.0,16_50_15_46979
1168,203.0,16_50_15_47029
1169,187.0,16_50_15_47063
1170,182.0,16_50_15_47113
1171,191.0,16_50_15_47147
1172,218.0,16_50_15_47196
1173,250.0,16_50_15_47230
1174,298.0,16_50_15_47279
1175,343.0,16_50_15_47313
1176,386.0,16_50_15_47363
1177,421.0,16_50_15_47396
1178,453.0,16_50_15_47430
1179,479.0,16_50_15_47480
1180,494.0,16_50_15_47513
1181,491.0,16_50_15_47546
1182,483.0,16_50_16_47597
1183,483.0,16_50_16_47629
1184,490.0,16_50_16_47680
1185,484.0,16_50_16_47713
1186,462.0,16_50_16_47763
1187,431.0,16_50_16_47796
1188,385.0,16_50_16_47847
1189,339.0,16_50_16_47879
1190,292.0,16_50_16_47913
1191,256.0,16_50_16_47963
1192,230.0,16_50_16_47997
1193,211.0,16_50_16_48047
1194,199.0,16_50_16_48080
1195,191.0,16_50_16_48129
1196,191.0,16_50_16_48163
1197,195.0,16_50_16_48213
1198,185.0,16_50_16_48246
1199,178.0,16_50_16_48297
1200,184.0,16_50_16_48330
1201,205.0,16_50_16_48363
1202,237.0,16_50_16_48413
1203,280.0,16_50_16_48446
1204,323.0,16_50_16_48496
1205,364.0,16_50_16_48530
1206,400.0,16_50_17_48563
1207,433.0,16_50_17_48613
1208,462.0,16_50_17_48647
1209,479.0,16_50_17_48697
1210,485.0,16_50_17_48730
1211,484.0,16_50_17_48780
1212,477.0,16_50_17_48813
1213,485.0,16_50_17_48846
1214,487.0,16_50_17_48897
1215,474.0,16_50_17_48930
1216,447.0,16_50_17_48980
1217,411.0,16_50_17_49014
1218,366.0,16_50_17_49063
1219,321.0,16_50_17_49097
1220,281.0,16_50_17_49146
1221,251.0,16_50_17_49180
1222,227.0,16_50_17_49230
1223,213.0,16_50_17_49263
1224,203.0,16_50_17_49296
1225,200.0,16_50_17_49347
1226,198.0,16_50_17_49380
1227,192.0,16_50_17_49430
1228,181.0,16_50_17_49464
1229,179.0,16_50_17_49513
1230,195.0,16_50_17_49546
1231,222.0,16_50_18_49580
1232,258.0,16_50_18_49630
1233,302.0,16_50_18_49663
1234,343.0,16_50_18_49713
1235,381.0,16_50_18_49746
1236,411.0,16_50_18_49780
1237,444.0,16_50_18_49830
1238,470.0,16_50_18_49863
1239,482.0,16_50_18_49913
1240,484.0,16_50_18_49946
1241,481.0,16_50_18_49997
1242,490.0,16_50_18_50030
1243,497.0,16_50_18_50080
1244,494.0,16_50_18_50113
1245,475.0,16_50_18_50163
1246,454.0,16_50_18_50197
1247,414.0,16_50_18_50229
1248,369.0,16_50_18_50279
1249,325.0,16_50_18_50313
1250,297.0,16_50_18_50363
1251,265.0,16_50_18_50397
1252,241.0,16_50_18_50447
1253,213.0,16_50_18_50480
1254,214.0,16_50_18_50513
1255,212.0,16_50_19_50563
1256,212.0,16_50_19_50596
1257,192.0,16_50_19_50647
1258,180.0,16_50_19_50682
1259,177.0,16_50_19_50730
1260,192.0,16_50_19_50763
1261,218.0,16_50_19_50797
1262,247.0,16_50_19_50846
1263,278.0,16_50_19_50880
1264,318.0,16_50_19_50930
1265,364.0,16_50_19_50963
1266,401.0,16_50_19_51013
1267,463.0,16_50_19_51047
1268,475.0,16_50_19_51096
1269,483.0,16_50_19_51130
1270,489.0,16_50_19_51163
1271,483.0,16_50_19_51214
1272,501.0,16_50_19_51246
1273,516.0,16_50_19_51297
1274,496.0,16_50_19_51330
1275,489.0,16_50_19_51380
1276,461.0,16_50_19_51413
1277,423.0,16_50_19_51447
1278,376.0,16_50_19_51497
1279,320.0,16_50_19_51529
1280,272.0,16_50_20_51580
1281,250.0,16_50_20_51614
1282,224.0,16_50_20_51663
1283,212.0,16_50_20_51696
1284,209.0,16_50_20_51730
1285,211.0,16_50_20_51780
1286,222.0,16_50_20_51813
1287,197.0,16_50_20_51863
1288,307.0,16_50_20_51897
1289,220.0,16_50_20_51947
1290,202.0,16_50_20_51980
1291,209.0,16_50_20_52030
1292,234.0,16_50_20_52063
1293,262.0,16_50_20_52096
1294,300.0,16_50_20_52147
1295,330.0,16_50_20_52180
1296,377.0,16_50_20_52230
1297,415.0,16_50_20_52264
1298,455.0,16_50_20_52313
1299,481.0,16_50_20_52347
1300,497.0,16_50_20_52380
1301,502.0,16_50_20_52430
1302,538.0,16_50_20_52463
1303,540.0,16_50_20_52513
1304,531.0,16_50_20_52547
1305,513.0,16_50_21_52596
1306,481.0,16_50_21_52630
1307,438.0,16_50_21_52663
1308,398.0,16_50_21_52713
1309,327.0,16_50_21_52747
1310,293.0,16_50_21_52797
1311,260.0,16_50_21_52830
1312,237.0,16_50_21_52880
1313,216.0,16_50_21_52913
1314,205.0,16_50_21_52947
1315,204.0,16_50_21_52997
1316,178.0,16_50_21_53031
1317,191.0,16_50_21_53080
1318,172.0,16_50_21_53113
1319,143.0,16_50_21_53163
1320,143.0,16_50_21_53196
1321,160.0,16_50_21_53247
1322,194.0,16_50_21_53280
1323,252.0,16_50_21_53330
1324,290.0,16_50_21_53364
1325,386.0,16_50_21_53397
1326,356.0,16_50_21_53446
1327,432.0,16_50_21_53480
1328,460.0,16_50_21_53530
1329,473.0,16_50_22_53564
1330,481.0,16_50_22_53613
1331,475.0,16_50_22_53647
1332,485.0,16_50_22_53680
1333,497.0,16_50_22_53730
1334,494.0,16_50_22_53763
1335,476.0,16_50_22_53813
1336,450.0,16_50_22_53847
1337,418.0,16_50_22_53880
1338,367.0,16_50_22_53930
1339,320.0,16_50_22_53963
1340,283.0,16_50_22_54013
1341,253.0,16_50_22_54047
1342,230.0,16_50_22_54097
1343,217.0,16_50_22_54130
1344,204.0,16_50_22_54180
1345,211.0,16_50_22_54213
1346,215.0,16_50_22_54263
1347,204.0,16_50_22_54296
1348,184.0,16_50_22_54347
1349,176.0,16_50_22_54380
1350,187.0,16_50_22_54413
1351,211.0,16_50_22_54464
1352,248.0,16_50_22_54496
1353,289.0,16_50_22_54547
1354,331.0,16_50_23_54580
1355,371.0,16_50_23_54613
1356,408.0,16_50_23_54663
1357,445.0,16_50_23_54696
1358,467.0,16_50_23_54746
1359,484.0,16_50_23_54780
1360,487.0,16_50_23_54830
1361,483.0,16_50_23_54864
1362,493.0,16_50_23_54896
1363,501.0,16_50_23_54946
1364,499.0,16_50_23_54980
1365,483.0,16_50_23_55030
1366,448.0,16_50_23_55063
1367,403.0,16_50_23_55114
1368,353.0,16_50_23_55147
1369,307.0,16_50_23_55197
1370,302.0,16_50_23_55230
1371,203.0,16_50_23_55280
1372,211.0,16_50_23_55313
1373,206.0,16_50_23_55347
1374,193.0,16_50_23_55397
1375,468.0,16_50_23_55430
1376,523.0,16_50_23_55480
1377,293.0,16_50_23_55514
1378,301.0,16_50_24_55548
1379,303.0,16_50_24_55597
1380,303.0,16_50_24_55631
1381,304.0,16_50_24_55680
1382,306.0,16_50_24_55714
1383,306.0,16_50_24_55764
1384,306.0,16_50_24_55796
1385,306.0,16_50_24_55830
1386,307.0,16_50_24_55880
1387,524.0,16_50_24_55914
1388,605.0,16_50_24_55964
1389,636.0,16_50_24_55997
1390,649.0,16_50_24_56030
1391,654.0,16_50_24_56081
1392,656.0,16_50_24_56113
1393,657.0,16_50_24_56164
1394,658.0,16_50_24_56196
1395,658.0,16_50_24_56247
1396,658.0,16_50_24_56280
1397,658.0,16_50_24_56330
1398,658.0,16_50_24_56364
1399,658.0,16_50_24_56414
1400,658.0,16_50_24_56446
1401,658.0,16_50_24_56481
1402,658.0,16_50_24_56530
1403,658.0,16_50_25_56563
1404,658.0,16_50_25_56613
1405,658.0,16_50_25_56647
1406,658.0,16_50_25_56696
1407,658.0,16_50_25_56731
1408,659.0,16_50_25_56780
1409,656.0,16_50_25_56814
1410,653.0,16_50_25_56847
1411,650.0,16_50_25_56897
1412,647.0,16_50_25_56930
1413,644.0,16_50_25_56964
1414,641.0,16_50_25_57014
1415,638.0,16_50_25_57047
1416,635.0,16_50_25_57097
1417,632.0,16_50_25_57130
1418,629.0,16_50_25_57181
1419,626.0,16_50_25_57214
1420,645.0,16_50_25_57264
1421,653.0,16_50_25_57297
1422,656.0,16_50_25_57331
1423,657.0,16_50_25_57380
1424,657.0,16_50_25_57414
1425,658.0,16_50_25_57463
1426,658.0,16_50_25_57497
1427,658.0,16_50_25_57530
1428,658.0,16_50_26_57580
1429,658.0,16_50_26_57614
1430,659.0,16_50_26_57664
1431,659.0,16_50_26_57697
1432,659.0,16_50_26_57747
1433,659.0,16_50_26_57781
1434,658.0,16_50_26_57830
1435,658.0,16_50_26_57863
1436,658.0,16_50_26_57914
1437,658.0,16_50_26_57947
1438,658.0,16_50_26_57980
1439,658.0,16_50_26_58030
1440,654.0,16_50_26_58063
1441,594.0,16_50_26_58113
1442,529.0,16_50_26_58147
1443,529.0,16_50_26_58180
1444,526.0,16_50_26_58230
1445,524.0,16_50_26_58264
1446,521.0,16_50_26_58314
1447,518.0,16_50_26_58347
1448,516.0,16_50_26_58397
1449,515.0,16_50_26_58430
1450,513.0,16_50_26_58481
1451,511.0,16_50_26_58513
1452,509.0,16_50_26_58547
1453,506.0,16_50_27_58597
1454,504.0,16_50_27_58631
1455,500.0,16_50_27_58663
1456,597.0,16_50_27_58714
1457,634.0,16_50_27_58746
1458,648.0,16_50_27_58797
1459,654.0,16_50_27_58830
1460,657.0,16_50_27_58880
1461,658.0,16_50_27_58913
1462,658.0,16_50_27_58947
1463,658.0,16_50_27_58997
1464,658.0,16_50_27_59030
1465,658.0,16_50_27_59081
1466,658.0,16_50_27_59114
1467,658.0,16_50_27_59163
1468,658.0,16_50_27_59197
1469,658.0,16_50_27_59246
1470,658.0,16_50_27_59280
1471,658.0,16_50_27_59330
1472,658.0,16_50_27_59364
1473,658.0,16_50_27_59397
1474,658.0,16_50_27_59447
1475,658.0,16_50_27_59480
1476,658.0,16_50_27_59531
1477,656.0,16_50_28_59563
1478,653.0,16_50_28_59614
1479,650.0,16_50_28_59647
1480,647.0,16_50_28_59681
1481,644.0,16_50_28_59731
1482,641.0,16_50_28_59764
1483,638.0,16_50_28_59814
1484,635.0,16_50_28_59848
1485,632.0,16_50_28_59897
1486,629.0,16_50_28_59931
1487,626.0,16_50_28_59964
1488,622.0,16_50_28_60014
1489,644.0,16_50_28_60047
1490,653.0,16_50_28_60097
1491,656.0,16_50_28_60130
1492,658.0,16_50_28_60163
1493,658.0,16_50_28_60214
1494,658.0,16_50_28_60247
1495,659.0,16_50_28_60297
1496,658.0,16_50_28_60331
1497,658.0,16_50_28_60381
1498,658.0,16_50_28_60414
1499,658.0,16_50_28_60447
1500,658.0,16_50_28_60498
1501,658.0,16_50_28_60531
1502,658.0,16_50_29_60580
1503,658.0,16_50_29_60614
1504,658.0,16_50_29_60664
1505,658.0,16_50_29_60697
1506,658.0,16_50_29_60747
1507,658.0,16_50_29_60780
1508,658.0,16_50_29_60830
1509,658.0,16_50_29_60863
1510,659.0,16_50_29_60897
1511,655.0,16_50_29_60947
1512,650.0,16_50_29_60981
1513,312.0,16_50_29_61031
1514,133.0,16_50_29_61063
1515,148.0,16_50_29_61098
1516,158.0,16_50_29_61148
1517,166.0,16_50_29_61180
1518,174.0,16_50_29_61230
1519,181.0,16_50_29_61264
1520,187.0,16_50_29_61314
1521,193.0,16_50_29_61348
1522,198.0,16_50_29_61381
1523,202.0,16_50_29_61430
1524,487.0,16_50_29_61464
1525,590.0,16_50_29_61514
1526,631.0,16_50_29_61547
1527,647.0,16_50_30_61597
1528,653.0,16_50_30_61631
1529,469.0,16_50_30_61663
1530,477.0,16_50_30_61714
1531,440.0,16_50_30_61747
1532,440.0,16_50_30_61797
1533,420.0,16_50_30_61831
1534,361.0,16_50_30_61880
1535,312.0,16_50_30_61914
1536,259.0,16_50_30_61964
1537,243.0,16_50_30_61997
1538,357.0,16_50_30_62030
1539,252.0,16_50_30_62081
1540,229.0,16_50_30_62113
1541,316.0,16_50_30_62165
1542,317.0,16_50_30_62197
1543,317.0,16_50_30_62247
1544,316.0,16_50_30_62280
1545,316.0,16_50_30_62314
1546,316.0,16_50_30_62364
1547,316.0,16_50_30_62397
1548,316.0,16_50_30_62447
1549,316.0,16_50_30_62481
1550,314.0,16_50_30_62514
1551,234.0,16_50_31_62563
1552,253.0,16_50_31_62597
1553,243.0,16_50_31_62647
1554,311.0,16_50_31_62680
1555,361.0,16_50_31_62730
1556,405.0,16_50_31_62764
1557,561.0,16_50_31_62797
1558,619.0,16_50_31_62847
1559,642.0,16_50_31_62881
1560,651.0,16_50_31_62931
1561,655.0,16_50_31_62963
1562,656.0,16_50_31_63014
1563,657.0,16_50_31_63047
1564,658.0,16_50_31_63080
1565,658.0,16_50_31_63131
1566,658.0,16_50_31_63164
1567,658.0,16_50_31_63214
1568,658.0,16_50_31_63247
1569,658.0,16_50_31_63298
1570,658.0,16_50_31_63330
1571,658.0,16_50_31_63380
1572,657.0,16_50_31_63414
1573,656.0,16_50_31_63464
1574,626.0,16_50_31_63497
1575,624.0,16_50_31_63531
1576,621.0,16_50_32_63581
1577,617.0,16_50_32_63614
1578,615.0,16_50_32_63664
1579,612.0,16_50_32_63698
1580,609.0,16_50_32_63730
1581,606.0,16_50_32_63781
1582,604.0,16_50_32_63815
1583,601.0,16_50_32_63865
1584,598.0,16_50_32_63897
1585,594.0,16_50_32_63947
1586,633.0,16_50_32_63981
1587,648.0,16_50_32_64013
1588,654.0,16_50_32_64064
1589,656.0,16_50_32_64097
1590,658.0,16_50_32_64147
1591,658.0,16_50_32_64181
1592,658.0,16_50_32_64230
1593,658.0,16_50_32_64264
1594,658.0,16_50_32_64298
1595,657.0,16_50_32_64347
1596,658.0,16_50_32_64380
1597,657.0,16_50_32_64430
1598,658.0,16_50_32_64463
1599,659.0,16_50_32_64514
1600,658.0,16_50_32_64547
1601,658.0,16_50_33_64597
1602,658.0,16_50_33_64631
1603,659.0,16_50_33_64665
1604,657.0,16_50_33_64714
1605,654.0,16_50_33_64747
1606,650.0,16_50_33_64798
1607,647.0,16_50_33_64830
1608,644.0,16_50_33_64864
1609,641.0,16_50_33_64915
1610,638.0,16_50_33_64947
1611,636.0,16_50_33_64997
1612,631.0,16_50_33_65031
1613,632.0,16_50_33_65081
1614,629.0,16_50_33_65114
1615,626.0,16_50_33_65148
1616,623.0,16_50_33_65198
1617,620.0,16_50_33_65230
1618,615.0,16_50_33_65281
1619,641.0,16_50_33_65313
1620,651.0,16_50_33_65364
1621,655.0,16_50_33_65397
1622,657.0,16_50_33_65447
1623,658.0,16_50_33_65481
1624,658.0,16_50_33_65514
1625,658.0,16_50_34_65563
1626,658.0,16_50_34_65597
1627,658.0,16_50_34_65647
1628,658.0,16_50_34_65680
1629,658.0,16_50_34_65714
1630,658.0,16_50_34_65764
1631,658.0,16_50_34_65797
1632,658.0,16_50_34_65847
1633,658.0,16_50_34_65881
1634,658.0,16_50_34_65931
1635,658.0,16_50_34_65964
1636,657.0,16_50_34_66014
1637,627.0,16_50_34_66048
1638,573.0,16_50_34_66081
1639,572.0,16_50_34_66131
1640,570.0,16_50_34_66164
1641,567.0,16_50_34_66215
1642,563.0,16_50_34_66247
1643,560.0,16_50_34_66281
1644,558.0,16_50_34_66331
1645,555.0,16_50_34_66364
1646,325.0,16_50_34_66414
1647,250.0,16_50_34_66448
1648,245.0,16_50_34_66498
1649,269.0,16_50_34_66530
1650,309.0,16_50_35_66580
1651,355.0,16_50_35_66614
1652,406.0,16_50_35_66664
1653,446.0,16_50_35_66697
1654,473.0,16_50_35_66731
1655,487.0,16_50_35_66781
1656,494.0,16_50_35_66814
1657,496.0,16_50_35_66864
1658,504.0,16_50_35_66897
1659,497.0,16_50_35_66931
1660,477.0,16_50_35_66981
1661,437.0,16_50_35_67014
1662,394.0,16_50_35_67064
1663,353.0,16_50_35_67098
1664,311.0,16_50_35_67147
1665,276.0,16_50_35_67181
1666,249.0,16_50_35_67213
1667,234.0,16_50_35_67264
1668,220.0,16_50_35_67297
1669,224.0,16_50_35_67347
1670,220.0,16_50_35_67381
1671,205.0,16_50_35_67431
1672,188.0,16_50_35_67464
1673,180.0,16_50_35_67514
1674,201.0,16_50_36_67548
1675,221.0,16_50_36_67597
1676,278.0,16_50_36_67630
1677,298.0,16_50_36_67664
1678,337.0,16_50_36_67714
1679,380.0,16_50_36_67747
1680,393.0,16_50_36_67797
1681,429.0,16_50_36_67830
1682,466.0,16_50_36_67864
1683,502.0,16_50_36_67914
1684,500.0,16_50_36_67947
1685,514.0,16_50_36_67998
1686,512.0,16_50_36_68030
1687,488.0,16_50_36_68081
1688,457.0,16_50_36_68114
1689,421.0,16_50_36_68148
1690,220.0,16_50_36_68198
1691,280.0,16_50_36_68230
1692,276.0,16_50_36_68281
1693,256.0,16_50_36_68314
1694,233.0,16_50_36_68364
1695,220.0,16_50_36_68397
1696,216.0,16_50_36_68447
1697,227.0,16_50_36_68481
1698,217.0,16_50_36_68530
1699,199.0,16_50_37_68564
1700,182.0,16_50_37_68597
1701,178.0,16_50_37_68647
1702,192.0,16_50_37_68681
1703,222.0,16_50_37_68731
1704,307.0,16_50_37_68764
1705,321.0,16_50_37_68814
1706,359.0,16_50_37_68848
1707,398.0,16_50_37_68881
1708,430.0,16_50_37_68931
1709,457.0,16_50_37_68964
1710,481.0,16_50_37_69014
1711,503.0,16_50_37_69047
1712,529.0,16_50_37_69081
1713,607.0,16_50_37_69131
1714,637.0,16_50_37_69164
1715,650.0,16_50_37_69214
1716,654.0,16_50_37_69248
1717,656.0,16_50_37_69298
1718,650.0,16_50_37_69331
1719,636.0,16_50_37_69381
1720,598.0,16_50_37_69414
1721,600.0,16_50_37_69464
1722,483.0,16_50_37_69498
1723,438.0,16_50_37_69531
1724,515.0,16_50_38_69581
1725,532.0,16_50_38_69615
1726,352.0,16_50_38_69665
1727,172.0,16_50_38_69698
1728,182.0,16_50_38_69748
1729,189.0,16_50_38_69781
1730,195.0,16_50_38_69814
1731,199.0,16_50_38_69864
1732,204.0,16_50_38_69897
1733,185.0,16_50_38_69948
1734,288.0,16_50_38_69981
1735,443.0,16_50_38_70015
1736,574.0,16_50_38_70064
1737,624.0,16_50_38_70097
1738,644.0,16_50_38_70147
1739,652.0,16_50_38_70181
1740,655.0,16_50_38_70231
1741,656.0,16_50_38_70264
1742,657.0,16_50_38_70298
1743,657.0,16_50_38_70348
1744,657.0,16_50_38_70381
1745,657.0,16_50_38_70431
1746,657.0,16_50_38_70465
1747,576.0,16_50_38_70514
1748,561.0,16_50_38_70547
1749,478.0,16_50_39_70598
1750,540.0,16_50_39_70631
1751,530.0,16_50_39_70681
1752,504.0,16_50_39_70714
1753,346.0,16_50_39_70748
1754,349.0,16_50_39_70798
1755,349.0,16_50_39_70832
1756,348.0,16_50_39_70882
1757,349.0,16_50_39_70915
1758,349.0,16_50_39_70948
1759,349.0,16_50_39_70998
1760,348.0,16_50_39_71032
1761,348.0,16_50_39_71081
1762,345.0,16_50_39_71115
1763,344.0,16_50_39_71164
1764,346.0,16_50_39_71198
1765,344.0,16_50_39_71247
1766,538.0,16_50_39_71281
1767,610.0,16_50_39_71314
1768,639.0,16_50_39_71365
1769,650.0,16_50_39_71398
1770,655.0,16_50_39_71448
1771,656.0,16_50_39_71481
1772,657.0,16_50_39_71514
1773,657.0,16_50_40_71564
1774,657.0,16_50_40_71598
1775,657.0,16_50_40_71648
1776,657.0,16_50_40_71680
1777,598.0,16_50_40_71731
1778,342.0,16_50_40_71765
1779,541.0,16_50_40_71798
1780,611.0,16_50_40_71848
1781,630.0,16_50_40_71880
1782,456.0,16_50_40_71931
1783,581.0,16_50_40_71965
1784,490.0,16_50_40_72014
1785,536.0,16_50_40_72049
1786,533.0,16_50_40_72097
1787,531.0,16_50_40_72131
1788,529.0,16_50_40_72165
1789,525.0,16_50_40_72215
1790,523.0,16_50_40_72248
1791,520.0,16_50_40_72298
1792,518.0,16_50_40_72331
1793,515.0,16_50_40_72364
1794,513.0,16_50_40_72414
1795,510.0,16_50_40_72448
1796,509.0,16_50_40_72498
1797,506.0,16_50_40_72531
1798,600.0,16_50_41_72581
1799,635.0,16_50_41_72614
1800,648.0,16_50_41_72664
1801,654.0,16_50_41_72700
1802,656.0,16_50_41_72731
1803,657.0,16_50_41_72781
1804,658.0,16_50_41_72814
1805,658.0,16_50_41_72864
1806,658.0,16_50_41_72897
1807,657.0,16_50_41_72948
1808,657.0,16_50_41_72981
1809,657.0,16_50_41_73014
1810,655.0,16_50_41_73064
1811,645.0,16_50_41_73098
1812,640.0,16_50_41_73147
1813,644.0,16_50_41_73181
1814,591.0,16_50_41_73231
1815,547.0,16_50_41_73264
1816,484.0,16_50_41_73298
1817,590.0,16_50_41_73347
1818,629.0,16_50_41_73381
1819,606.0,16_50_41_73431
1820,527.0,16_50_41_73465
1821,526.0,16_50_41_73515
1822,523.0,16_50_42_73548
1823,520.0,16_50_42_73581
1824,519.0,16_50_42_73631
1825,516.0,16_50_42_73665
1826,514.0,16_50_42_73714
1827,512.0,16_50_42_73748
1828,508.0,16_50_42_73797
1829,600.0,16_50_42_73831
1830,635.0,16_50_42_73881
1831,649.0,16_50_42_73914
1832,654.0,16_50_42_73948
1833,656.0,16_50_42_73997
1834,657.0,16_50_42_74031
1835,657.0,16_50_42_74081
1836,658.0,16_50_42_74114
1837,658.0,16_50_42_74148
1838,658.0,16_50_42_74197
1839,658.0,16_50_42_74231
1840,657.0,16_50_42_74281
1841,657.0,16_50_42_74314
1842,658.0,16_50_42_74364
1843,658.0,16_50_42_74398
1844,658.0,16_50_42_74431
1845,658.0,16_50_42_74481
1846,624.0,16_50_42_74514
1847,644.0,16_50_43_74564
1848,652.0,16_50_43_74598
1849,652.0,16_50_43_74648
1850,498.0,16_50_43_74681
1851,498.0,16_50_43_74731
1852,496.0,16_50_43_74765
1853,494.0,16_50_43_74797
1854,493.0,16_50_43_74848
1855,491.0,16_50_43_74882
1856,489.0,16_50_43_74932
1857,487.0,16_50_43_74964
1858,483.0,16_50_43_75015
1859,591.0,16_50_43_75048
1860,632.0,16_50_43_75097
1861,647.0,16_50_43_75131
1862,654.0,16_50_43_75164
1863,656.0,16_50_43_75215
1864,657.0,16_50_43_75248
1865,658.0,16_50_43_75298
1866,657.0,16_50_43_75331
1867,657.0,16_50_43_75365
1868,658.0,16_50_43_75414
1869,658.0,16_50_43_75448
1870,658.0,16_50_43_75498
1871,657.0,16_50_43_75531
1872,655.0,16_50_44_75581
1873,553.0,16_50_44_75614
1874,391.0,16_50_44_75648
1875,214.0,16_50_44_75698
1876,163.0,16_50_44_75731
1877,154.0,16_50_44_75781
1878,154.0,16_50_44_75814
1879,184.0,16_50_44_75864
1880,205.0,16_50_44_75897
1881,166.0,16_50_44_75948
1882,146.0,16_50_44_75982
1883,155.0,16_50_44_76031
1884,90.0,16_50_44_76065
1885,201.0,16_50_44_76098
1886,275.0,16_50_44_76148
1887,277.0,16_50_44_76181
1888,365.0,16_50_44_76231
1889,427.0,16_50_44_76265
1890,476.0,16_50_44_76314
1891,496.0,16_50_44_76348
1892,510.0,16_50_44_76381
1893,515.0,16_50_44_76431
1894,518.0,16_50_44_76465
1895,533.0,16_50_44_76514
1896,508.0,16_50_45_76548
1897,477.0,16_50_45_76581
1898,436.0,16_50_45_76632
1899,390.0,16_50_45_76664
1900,339.0,16_50_45_76714
1901,292.0,16_50_45_76748
1902,255.0,16_50_45_76798
1903,224.0,16_50_45_76831
1904,207.0,16_50_45_76882
1905,206.0,16_50_45_76914
1906,208.0,16_50_45_76965
1907,212.0,16_50_45_76998
1908,202.0,16_50_45_77031
1909,167.0,16_50_45_77082
1910,157.0,16_50_45_77114
1911,168.0,16_50_45_77165
1912,201.0,16_50_45_77198
1913,250.0,16_50_45_77248
1914,301.0,16_50_45_77281
1915,346.0,16_50_45_77314
1916,398.0,16_50_45_77365
1917,443.0,16_50_45_77398
1918,480.0,16_50_45_77448
1919,499.0,16_50_45_77481
1920,507.0,16_50_45_77515
1921,506.0,16_50_46_77564
1922,527.0,16_50_46_77598
1923,510.0,16_50_46_77647
1924,485.0,16_50_46_77681
1925,455.0,16_50_46_77732
1926,418.0,16_50_46_77765
1927,373.0,16_50_46_77815
1928,325.0,16_50_46_77848
1929,289.0,16_50_46_77898
1930,251.0,16_50_46_77931
1931,222.0,16_50_46_77964
1932,206.0,16_50_46_78014
1933,203.0,16_50_46_78048
1934,207.0,16_50_46_78097
1935,212.0,16_50_46_78131
1936,191.0,16_50_46_78181
1937,169.0,16_50_46_78215
1938,169.0,16_50_46_78265
1939,186.0,16_50_46_78298
1940,219.0,16_50_46_78331
1941,265.0,16_50_46_78381
1942,302.0,16_50_46_78414
1943,310.0,16_50_46_78465
1944,383.0,16_50_46_78498
1945,440.0,16_50_46_78531
1946,467.0,16_50_47_78581
1947,471.0,16_50_47_78615
1948,476.0,16_50_47_78664
1949,483.0,16_50_47_78698
1950,480.0,16_50_47_78748
1951,495.0,16_50_47_78781
1952,481.0,16_50_47_78831
1953,455.0,16_50_47_78865
1954,416.0,16_50_47_78898
1955,371.0,16_50_47_78948
1956,325.0,16_50_47_78981
1957,310.0,16_50_47_79032
1958,269.0,16_50_47_79065
1959,236.0,16_50_47_79115
1960,220.0,16_50_47_79148
1961,217.0,16_50_47_79198
1962,221.0,16_50_47_79231
1963,213.0,16_50_47_79264
1964,204.0,16_50_47_79315
1965,193.0,16_50_47_79348
1966,195.0,16_50_47_79398
1967,208.0,16_50_47_79431
1968,235.0,16_50_47_79482
1969,273.0,16_50_47_79515
1970,315.0,16_50_48_79548
1971,355.0,16_50_48_79598
1972,403.0,16_50_48_79631
1973,441.0,16_50_48_79681
1974,465.0,16_50_48_79715
1975,478.0,16_50_48_79748
1976,481.0,16_50_48_79798
1977,497.0,16_50_48_79831
1978,513.0,16_50_48_79881
1979,499.0,16_50_48_79914
1980,472.0,16_50_48_79965
1981,437.0,16_50_48_79998
1982,392.0,16_50_48_80048
1983,343.0,16_50_48_80081
1984,293.0,16_50_48_80131
1985,249.0,16_50_48_80165
1986,216.0,16_50_48_80198
1987,193.0,16_50_48_80248
1988,173.0,16_50_48_80282
1989,439.0,16_50_48_80331
1990,395.0,16_50_48_80366
1991,394.0,16_50_48_80415
1992,393.0,16_50_48_80448
1993,393.0,16_50_48_80481
1994,391.0,16_50_48_80531
1995,390.0,16_50_49_80565
1996,389.0,16_50_49_80615
1997,388.0,16_50_49_80649
1998,386.0,16_50_49_80682
1999,385.0,16_50_49_80731
2000,552.0,16_50_49_80765
2001,616.0,16_50_49_80814
2002,641.0,16_50_49_80848
2003,651.0,16_50_49_80898
2004,655.0,16_50_49_80931
2005,657.0,16_50_49_80965
2006,657.0,16_50_49_81015
2007,658.0,16_50_49_81048
2008,658.0,16_50_49_81098
2009,658.0,16_50_49_81131
2010,658.0,16_50_49_81181
2011,658.0,16_50_49_81215
2012,656.0,16_50_49_81265
2013,607.0,16_50_49_81298
2014,565.0,16_50_49_81348
2015,553.0,16_50_49_81381
2016,539.0,16_50_49_81414
2017,499.0,16_50_49_81465
2018,426.0,16_50_49_81498
2019,303.0,16_50_50_81548
2020,253.0,16_50_50_81582
2021,257.0,16_50_50_81615
2022,259.0,16_50_50_81665
2023,261.0,16_50_50_81698
2024,264.0,16_50_50_81748
2025,268.0,16_50_50_81782
2026,270.0,16_50_50_81832
2027,270.0,16_50_50_81865
2028,112.0,16_50_50_81898
2029,296.0,16_50_50_81948
2030,521.0,16_50_50_81982
2031,603.0,16_50_50_82032
2032,636.0,16_50_50_82065
2033,433.0,16_50_50_82115
2034,573.0,16_50_50_82148
2035,625.0,16_50_50_82181
2036,644.0,16_50_50_82231
2037,652.0,16_50_50_82265
2038,655.0,16_50_50_82314
2039,656.0,16_50_50_82348
2040,657.0,16_50_50_82398
2041,642.0,16_50_50_82432
2042,392.0,16_50_50_82482
2043,345.0,16_50_50_82515
2044,407.0,16_50_51_82549
2045,561.0,16_50_51_82599
2046,529.0,16_50_51_82631
2047,421.0,16_50_51_82682
2048,294.0,16_50_51_82715
2049,217.0,16_50_51_82765
2050,171.0,16_50_51_82798
2051,178.0,16_50_51_82832
2052,186.0,16_50_51_82882
2053,192.0,16_50_51_82915
2054,197.0,16_50_51_82965
2055,201.0,16_50_51_82998
2056,206.0,16_50_51_83048
2057,210.0,16_50_51_83081
2058,260.0,16_50_51_83115
2059,509.0,16_50_51_83165
2060,598.0,16_50_51_83198
2061,634.0,16_50_51_83248
2062,648.0,16_50_51_83281
2063,654.0,16_50_51_83315
2064,655.0,16_50_51_83365
2065,656.0,16_50_51_83398
2066,657.0,16_50_51_83449
2067,657.0,16_50_51_83481
2068,657.0,16_50_51_83532
2069,657.0,16_50_52_83565
2070,657.0,16_50_52_83615
2071,657.0,16_50_52_83648
2072,656.0,16_50_52_83699
2073,656.0,16_50_52_83731
2074,656.0,16_50_52_83765
2075,649.0,16_50_52_83815
2076,554.0,16_50_52_83848
2077,615.0,16_50_52_83899
2078,575.0,16_50_52_83932
2079,518.0,16_50_52_83982
2080,317.0,16_50_52_84015
2081,321.0,16_50_52_84048
2082,322.0,16_50_52_84098
2083,321.0,16_50_52_84132
2084,322.0,16_50_52_84182
2085,322.0,16_50_52_84215
2086,363.0,16_50_52_84265
2087,463.0,16_50_52_84299
2088,582.0,16_50_52_84332
2089,627.0,16_50_52_84381
2090,645.0,16_50_52_84415
2091,652.0,16_50_52_84465
2092,655.0,16_50_52_84498
2093,657.0,16_50_52_84531
2094,657.0,16_50_53_84582
2095,407.0,16_50_53_84615
2096,464.0,16_50_53_84665
2097,462.0,16_50_53_84698
2098,440.0,16_50_53_84748
2099,399.0,16_50_53_84782
2100,350.0,16_50_53_84832
2101,304.0,16_50_53_84865
2102,270.0,16_50_53_84915
2103,238.0,16_50_53_84948
2104,218.0,16_50_53_84981
2105,211.0,16_50_53_85031
2106,210.0,16_50_53_85065
2107,212.0,16_50_53_85115
2108,195.0,16_50_53_85148
2109,166.0,16_50_53_85198
2110,168.0,16_50_53_85232
2111,187.0,16_50_53_85282
2112,226.0,16_50_53_85315
2113,264.0,16_50_53_85348
2114,309.0,16_50_53_85398
2115,357.0,16_50_53_85432
2116,399.0,16_50_53_85481
2117,447.0,16_50_53_85515
2118,476.0,16_50_54_85548
2119,490.0,16_50_54_85598
2120,494.0,16_50_54_85631
2121,514.0,16_50_54_85682
2122,517.0,16_50_54_85715
2123,499.0,16_50_54_85765
2124,464.0,16_50_54_85798
2125,425.0,16_50_54_85849
2126,380.0,16_50_54_85882
2127,333.0,16_50_54_85915
2128,291.0,16_50_54_85965
2129,257.0,16_50_54_85999
2130,238.0,16_50_54_86048
2131,221.0,16_50_54_86081
2132,217.0,16_50_54_86132
2133,218.0,16_50_54_86165
2134,205.0,16_50_54_86198
2135,191.0,16_50_54_86249
2136,182.0,16_50_54_86281
2137,191.0,16_50_54_86331
2138,215.0,16_50_54_86365
2139,253.0,16_50_54_86415
2140,296.0,16_50_54_86448
2141,342.0,16_50_54_86482
2142,390.0,16_50_54_86531
2143,433.0,16_50_55_86565
2144,467.0,16_50_55_86615
2145,481.0,16_50_55_86648
2146,488.0,16_50_55_86698
2147,499.0,16_50_55_86732
2148,513.0,16_50_55_86782
2149,498.0,16_50_55_86815
2150,469.0,16_50_55_86848
2151,437.0,16_50_55_86898
2152,393.0,16_50_55_86932
2153,346.0,16_50_55_86982
2154,303.0,16_50_55_87015
2155,267.0,16_50_55_87065
2156,241.0,16_50_55_87098
2157,223.0,16_50_55_87148
2158,220.0,16_50_55_87182
2159,217.0,16_50_55_87215
2160,216.0,16_50_55_87265
2161,200.0,16_50_55_87299
2162,187.0,16_50_55_87349
2163,189.0,16_50_55_87381
2164,205.0,16_50_55_87415
2165,235.0,16_50_55_87465
2166,276.0,16_50_55_87498
2167,321.0,16_50_56_87548
2168,367.0,16_50_56_87581
2169,412.0,16_50_56_87632
2170,448.0,16_50_56_87665
2171,471.0,16_50_56_87715
2172,486.0,16_50_56_87749
2173,488.0,16_50_56_87781
2174,505.0,16_50_56_87832
2175,507.0,16_50_56_87865
2176,483.0,16_50_56_87915
2177,452.0,16_50_56_87948
2178,414.0,16_50_56_87998
2179,372.0,16_50_56_88032
2180,325.0,16_50_56_88082
2181,286.0,16_50_56_88116
2182,255.0,16_50_56_88148
2183,232.0,16_50_56_88198
2184,220.0,16_50_56_88232
2185,216.0,16_50_56_88282
2186,208.0,16_50_56_88315
2187,205.0,16_50_56_88365
2188,193.0,16_50_56_88398
2189,184.0,16_50_56_88432
2190,192.0,16_50_56_88482
2191,212.0,16_50_56_88515
2192,249.0,16_50_57_88565
2193,293.0,16_50_57_88598
2194,336.0,16_50_57_88648
2195,382.0,16_50_57_88682
2196,422.0,16_50_57_88715
2197,453.0,16_50_57_88765
2198,469.0,16_50_57_88799
2199,477.0,16_50_57_88849
2200,489.0,16_50_57_88881
2201,504.0,16_50_57_88932
2202,499.0,16_50_57_88965
2203,474.0,16_50_57_89015
2204,443.0,16_50_57_89048
2205,403.0,16_50_57_89098
2206,356.0,16_50_57_89132
2207,307.0,16_50_57_89166
2208,273.0,16_50_57_89215
2209,245.0,16_50_57_89248
2210,226.0,16_50_57_89299
2211,218.0,16_50_57_89332
2212,218.0,16_50_57_89365
2213,217.0,16_50_57_89415
2214,204.0,16_50_57_89449
2215,191.0,16_50_57_89499
2216,192.0,16_50_57_89532
2217,221.0,16_50_58_89581
2218,241.0,16_50_58_89616
2219,275.0,16_50_58_89649
2220,317.0,16_50_58_89698
2221,359.0,16_50_58_89732
2222,407.0,16_50_58_89781
2223,444.0,16_50_58_89815
2224,422.0,16_50_58_89865
2225,462.0,16_50_58_89898
2226,476.0,16_50_58_89948
2227,497.0,16_50_58_89982
2228,503.0,16_50_58_90032
2229,486.0,16_50_58_90065
2230,458.0,16_50_58_90099
2231,394.0,16_50_58_90148
2232,364.0,16_50_58_90182
2233,323.0,16_50_58_90232
2234,285.0,16_50_58_90265
2235,258.0,16_50_58_90299
2236,234.0,16_50_58_90349
2237,221.0,16_50_58_90382
2238,208.0,16_50_58_90432
2239,215.0,16_50_58_90466
2240,209.0,16_50_58_90515
2241,197.0,16_50_59_90549
2242,191.0,16_50_59_90599
2243,201.0,16_50_59_90633
2244,221.0,16_50_59_90665
2245,265.0,16_50_59_90715
2246,297.0,16_50_59_90748
2247,339.0,16_50_59_90798
2248,384.0,16_50_59_90832
2249,422.0,16_50_59_90882
2250,456.0,16_50_59_90916
2251,474.0,16_50_59_90965
2252,514.0,16_50_59_90998
2253,506.0,16_50_59_91032
2254,513.0,16_50_59_91082
2255,505.0,16_50_59_91115
2256,473.0,16_50_59_91165
2257,438.0,16_50_59_91199
2258,396.0,16_50_59_91248
2259,350.0,16_50_59_91282
2260,305.0,16_50_59_91315
2261,270.0,16_50_59_91365
2262,241.0,16_50_59_91399
2263,227.0,16_50_59_91449
2264,218.0,16_50_59_91482
2265,216.0,16_50_59_91515
2266,181.0,16_51_0_91565
2267,190.0,16_51_0_91599
2268,182.0,16_51_0_91649
2269,183.0,16_51_0_91682
2270,200.0,16_51_0_91731
2271,229.0,16_51_0_91766
2272,267.0,16_51_0_91816
2273,337.0,16_51_0_91848
2274,370.0,16_51_0_91899
2275,415.0,16_51_0_91932
2276,456.0,16_51_0_91966
2277,481.0,16_51_0_92015
2278,496.0,16_51_0_92049
2279,501.0,16_51_0_92099
2280,462.0,16_51_0_92132
2281,492.0,16_51_0_92182
2282,480.0,16_51_0_92215
2283,452.0,16_51_0_92248
2284,427.0,16_51_0_92299
2285,384.0,16_51_0_92332
2286,339.0,16_51_0_92382
2287,298.0,16_51_0_92415
2288,263.0,16_51_0_92465
2289,237.0,16_51_0_92499
2290,219.0,16_51_0_92531
2291,207.0,16_51_1_92581
2292,212.0,16_51_1_92615
2293,205.0,16_51_1_92665
2294,189.0,16_51_1_92698
2295,181.0,16_51_1_92749
2296,184.0,16_51_1_92782
2297,206.0,16_51_1_92832
2298,255.0,16_51_1_92865
2299,288.0,16_51_1_92898
2300,331.0,16_51_1_92948
2301,379.0,16_51_1_92982
2302,425.0,16_51_1_93032
2303,461.0,16_51_1_93065
2304,483.0,16_51_1_93115
2305,504.0,16_51_1_93149
2306,510.0,16_51_1_93199
2307,521.0,16_51_1_93232
2308,504.0,16_51_1_93265
2309,472.0,16_51_1_93315
2310,432.0,16_51_1_93349
2311,399.0,16_51_1_93399
2312,372.0,16_51_1_93432
2313,322.0,16_51_1_93482
2314,283.0,16_51_1_93515
2315,252.0,16_51_2_93549
2316,229.0,16_51_2_93599
2317,216.0,16_51_2_93632
2318,213.0,16_51_2_93682
2319,219.0,16_51_2_93715
2320,205.0,16_51_2_93749
2321,191.0,16_51_2_93799
2322,182.0,16_51_2_93832
2323,189.0,16_51_2_93882
2324,213.0,16_51_2_93915
2325,251.0,16_51_2_93966
2326,294.0,16_51_2_93999
2327,342.0,16_51_2_94049
2328,394.0,16_51_2_94082
2329,439.0,16_51_2_94132
2330,472.0,16_51_2_94165
2331,492.0,16_51_2_94199
2332,501.0,16_51_2_94249
2333,510.0,16_51_2_94282
2334,516.0,16_51_2_94332
2335,492.0,16_51_2_94365
2336,460.0,16_51_2_94399
2337,431.0,16_51_2_94449
2338,393.0,16_51_2_94483
2339,352.0,16_51_2_94532
2340,312.0,16_51_3_94565
2341,277.0,16_51_3_94615
2342,247.0,16_51_3_94649
2343,227.0,16_51_3_94682
2344,218.0,16_51_3_94732
2345,216.0,16_51_3_94765
2346,215.0,16_51_3_94815
2347,201.0,16_51_3_94848
2348,189.0,16_51_3_94898
2349,189.0,16_51_3_94932
2350,203.0,16_51_3_94982
2351,233.0,16_51_3_95015
2352,272.0,16_51_3_95066
2353,314.0,16_51_3_95099
2354,360.0,16_51_3_95133
2355,407.0,16_51_3_95182
2356,445.0,16_51_3_95216
2357,471.0,16_51_3_95265
2358,484.0,16_51_3_95299
2359,490.0,16_51_3_95349
2360,508.0,16_51_3_95383
2361,514.0,16_51_3_95416
2362,490.0,16_51_3_95466
2363,458.0,16_51_3_95499
2364,423.0,16_51_4_95549
2365,380.0,16_51_4_95582
2366,335.0,16_51_4_95633
2367,295.0,16_51_4_95665
2368,265.0,16_51_4_95699
2369,239.0,16_51_4_95749
2370,222.0,16_51_4_95782
2371,217.0,16_51_4_95832
2372,217.0,16_51_4_95865
2373,210.0,16_51_4_95915
2374,196.0,16_51_4_95949
2375,178.0,16_51_4_95999
2376,181.0,16_51_4_96032
2377,201.0,16_51_4_96082
2378,231.0,16_51_4_96115
2379,271.0,16_51_4_96149
2380,317.0,16_51_4_96199
2381,365.0,16_51_4_96232
2382,413.0,16_51_4_96282
2383,453.0,16_51_4_96315
2384,480.0,16_51_4_96365
2385,494.0,16_51_4_96399
2386,501.0,16_51_4_96432
2387,519.0,16_51_4_96482
2388,509.0,16_51_4_96516
2389,483.0,16_51_5_96565
2390,449.0,16_51_5_96599
2391,413.0,16_51_5_96633
2392,373.0,16_51_5_96682
2393,330.0,16_51_5_96715
2394,291.0,16_51_5_96766
2395,259.0,16_51_5_96799
2396,234.0,16_51_5_96848
2397,219.0,16_51_5_96882
2398,214.0,16_51_5_96932
2399,214.0,16_51_5_96965
2400,202.0,16_51_5_97015
2401,189.0,16_51_5_97049
2402,181.0,16_51_5_97082
2403,187.0,16_51_5_97132
2404,207.0,16_51_5_97166
2405,243.0,16_51_5_97216
2406,285.0,16_51_5_97249
2407,331.0,16_51_5_97299
2408,381.0,16_51_5_97332
2409,427.0,16_51_5_97366
2410,461.0,16_51_5_97415
2411,481.0,16_51_5_97449
2412,493.0,16_51_5_97498
2413,505.0,16_51_5_97532
2414,519.0,16_51_6_97566
2415,503.0,16_51_6_97616
2416,472.0,16_51_6_97648
2417,444.0,16_51_6_97699
2418,404.0,16_51_6_97732
2419,361.0,16_51_6_97782
2420,318.0,16_51_6_97816
2421,281.0,16_51_6_97866
2422,251.0,16_51_6_97899
2423,229.0,16_51_6_97933
2424,210.0,16_51_6_97982
2425,212.0,16_51_6_98015
2426,214.0,16_51_6_98066
2427,199.0,16_51_6_98099
2428,184.0,16_51_6_98148
2429,175.0,16_51_6_98182
2430,183.0,16_51_6_98232
2431,204.0,16_51_6_98265
2432,249.0,16_51_6_98299
2433,293.0,16_51_6_98349
2434,342.0,16_51_6_98383
2435,393.0,16_51_6_98432
2436,437.0,16_51_6_98465
2437,471.0,16_51_6_98515
2438,492.0,16_51_7_98549
2439,500.0,16_51_7_98582
2440,516.0,16_51_7_98633
2441,518.0,16_51_7_98666
2442,498.0,16_51_7_98716
2443,467.0,16_51_7_98749
2444,433.0,16_51_7_98799
2445,393.0,16_51_7_98832
2446,354.0,16_51_7_98866
2447,313.0,16_51_7_98916
2448,252.0,16_51_7_98949
2449,238.0,16_51_7_98999
2450,222.0,16_51_7_99032
2451,213.0,16_51_7_99082
2452,213.0,16_51_7_99116
2453,213.0,16_51_7_99166
2454,197.0,16_51_7_99199
2455,167.0,16_51_7_99249
2456,172.0,16_51_7_99282
2457,184.0,16_51_7_99315
2458,212.0,16_51_7_99366
2459,251.0,16_51_7_99400
2460,294.0,16_51_7_99449
2461,343.0,16_51_7_99482
2462,463.0,16_51_7_99533
2463,463.0,16_51_8_99565
2464,479.0,16_51_8_99599
2465,492.0,16_51_8_99649
2466,499.0,16_51_8_99682
2467,513.0,16_51_8_99732
2468,518.0,16_51_8_99766
2469,462.0,16_51_8_99799
2470,451.0,16_51_8_99849
2471,428.0,16_51_8_99882
2472,394.0,16_51_8_99933
2473,355.0,16_51_8_99966
2474,314.0,16_51_8_100015
2475,279.0,16_51_8_100049
2476,204.0,16_51_8_100099
2477,221.0,16_51_8_100132
2478,216.0,16_51_8_100183
2479,214.0,16_51_8_100215
2480,226.0,16_51_8_100265
2481,204.0,16_51_8_100299
2482,186.0,16_51_8_100333
2483,205.0,16_51_8_100382
2484,191.0,16_51_8_100416
2485,208.0,16_51_8_100449
2486,243.0,16_51_8_100499
2487,289.0,16_51_8_100533
2488,334.0,16_51_9_100582
2489,384.0,16_51_9_100616
2490,486.0,16_51_9_100666
2491,491.0,16_51_9_100699
2492,504.0,16_51_9_100749
2493,514.0,16_51_9_100782
2494,523.0,16_51_9_100816
2495,530.0,16_51_9_100866
2496,509.0,16_51_9_100899
2497,387.0,16_51_9_100949
2498,410.0,16_51_9_100983
2499,396.0,16_51_9_101033
2500,368.0,16_51_9_101066
2501,331.0,16_51_9_101116
2502,294.0,16_51_9_101150
2503,260.0,16_51_9_101183
2504,258.0,16_51_9_101233
2505,223.0,16_51_9_101266
2506,211.0,16_51_9_101316
2507,207.0,16_51_9_101349
2508,185.0,16_51_9_101399
2509,139.0,16_51_9_101434
2510,150.0,16_51_9_101466
2511,153.0,16_51_9_101516
2512,189.0,16_51_10_101549
2513,195.0,16_51_10_101599
2514,201.0,16_51_10_101633
2515,206.0,16_51_10_101666
2516,210.0,16_51_10_101715
2517,490.0,16_51_10_101749
2518,591.0,16_51_10_101799
2519,631.0,16_51_10_101833
2520,647.0,16_51_10_101882
2521,653.0,16_51_10_101916
2522,656.0,16_51_10_101966
2523,657.0,16_51_10_101999
2524,656.0,16_51_10_102033
2525,654.0,16_51_10_102083
2526,655.0,16_51_10_102116
2527,655.0,16_51_10_102166
2528,659.0,16_51_10_102200
2529,658.0,16_51_10_102249
2530,650.0,16_51_10_102282
2531,630.0,16_51_10_102333
2532,587.0,16_51_10_102366
2533,549.0,16_51_10_102400
2534,510.0,16_51_10_102449
2535,499.0,16_51_10_102482
2536,577.0,16_51_10_102532
2537,347.0,16_51_11_102567
2538,349.0,16_51_11_102615
2539,348.0,16_51_11_102649
2540,348.0,16_51_11_102683
2541,348.0,16_51_11_102732
2542,348.0,16_51_11_102766
2543,349.0,16_51_11_102817
2544,350.0,16_51_11_102849
2545,349.0,16_51_11_102882
2546,349.0,16_51_11_102933
2547,348.0,16_51_11_102966
2548,539.0,16_51_11_103016
2549,611.0,16_51_11_103049
2550,639.0,16_51_11_103099
2551,650.0,16_51_11_103133
2552,655.0,16_51_11_103166
2553,656.0,16_51_11_103216
2554,657.0,16_51_11_103249
2555,657.0,16_51_11_103299
2556,656.0,16_51_11_103333
2557,657.0,16_51_11_103387
2558,657.0,16_51_11_103416
2559,658.0,16_51_11_103466
2560,659.0,16_51_11_103499
2561,659.0,16_51_11_103532
2562,659.0,16_51_12_103582
2563,658.0,16_51_12_103616
2564,657.0,16_51_12_103666
2565,658.0,16_51_12_103699
2566,658.0,16_51_12_103749
2567,658.0,16_51_12_103784
2568,655.0,16_51_12_103833
2569,652.0,16_51_12_103866
2570,649.0,16_51_12_103899
2571,645.0,16_51_12_103949
2572,643.0,16_51_12_103982
2573,640.0,16_51_12_104033
2574,637.0,16_51_12_104066
2575,634.0,16_51_12_104100
2576,631.0,16_51_12_104150
2577,628.0,16_51_12_104183
2578,625.0,16_51_12_104233
2579,623.0,16_51_12_104266
2580,620.0,16_51_12_104299
2581,644.0,16_51_12_104349
2582,652.0,16_51_12_104383
2583,655.0,16_51_12_104433
2584,657.0,16_51_12_104466
2585,658.0,16_51_12_104516
2586,659.0,16_51_13_104550
2587,659.0,16_51_13_104583
2588,658.0,16_51_13_104633
2589,658.0,16_51_13_104666
2590,658.0,16_51_13_104716
2591,657.0,16_51_13_104749
2592,657.0,16_51_13_104799
2593,658.0,16_51_13_104832
2594,659.0,16_51_13_104882
2595,659.0,16_51_13_104916
2596,658.0,16_51_13_104965
2597,657.0,16_51_13_104999
2598,658.0,16_51_13_105032
2599,659.0,16_51_13_105083
2600,660.0,16_51_13_105116
2601,661.0,16_51_13_105167
2602,655.0,16_51_13_105200
2603,653.0,16_51_13_105250
2604,651.0,16_51_13_105283
2605,649.0,16_51_13_105316
2606,646.0,16_51_13_105366
2607,643.0,16_51_13_105399
2608,639.0,16_51_13_105449
2609,636.0,16_51_13_105482
2610,634.0,16_51_13_105517
2611,632.0,16_51_14_105567
2612,629.0,16_51_14_105600
2613,624.0,16_51_14_105649
2614,645.0,16_51_14_105682
2615,653.0,16_51_14_105732
2616,656.0,16_51_14_105766
2617,657.0,16_51_14_105800
2618,658.0,16_51_14_105849
2619,658.0,16_51_14_105883
2620,656.0,16_51_14_105932
2621,656.0,16_51_14_105966
2622,657.0,16_51_14_106016
2623,658.0,16_51_14_106049
2624,658.0,16_51_14_106083
2625,657.0,16_51_14_106133
2626,657.0,16_51_14_106166
2627,656.0,16_51_14_106216
2628,656.0,16_51_14_106249
2629,656.0,16_51_14_106299
2630,656.0,16_51_14_106333
2631,653.0,16_51_14_106383
2632,645.0,16_51_14_106416
2633,639.0,16_51_14_106466
2634,617.0,16_51_14_106501
2635,615.0,16_51_14_106533
2636,612.0,16_51_15_106583
2637,608.0,16_51_15_106616
2638,605.0,16_51_15_106666
2639,602.0,16_51_15_106699
2640,600.0,16_51_15_106732
2641,598.0,16_51_15_106783
2642,596.0,16_51_15_106817
2643,593.0,16_51_15_106866
2644,591.0,16_51_15_106899
2645,589.0,16_51_15_106949
2646,586.0,16_51_15_106983
2647,631.0,16_51_15_107016
2648,647.0,16_51_15_107066
2649,654.0,16_51_15_107100
2650,657.0,16_51_15_107150
2651,658.0,16_51_15_107183
2652,658.0,16_51_15_107233
2653,658.0,16_51_15_107266
2654,659.0,16_51_15_107299
2655,658.0,16_51_15_107350
2656,658.0,16_51_15_107383
2657,658.0,16_51_15_107433
2658,658.0,16_51_15_107466
2659,658.0,16_51_15_107516
2660,658.0,16_51_16_107550
2661,659.0,16_51_16_107582
2662,658.0,16_51_16_107633
2663,658.0,16_51_16_107666
2664,658.0,16_51_16_107716
2665,658.0,16_51_16_107749
2666,658.0,16_51_16_107799
2667,658.0,16_51_16_107833
2668,657.0,16_51_16_107866
2669,654.0,16_51_16_107916
2670,653.0,16_51_16_107949
2671,650.0,16_51_16_107999
2672,647.0,16_51_16_108033
2673,644.0,16_51_16_108083
2674,641.0,16_51_16_108116
2675,638.0,16_51_16_108149
2676,634.0,16_51_16_108200
2677,631.0,16_51_16_108233
2678,629.0,16_51_16_108284
2679,626.0,16_51_16_108316
2680,623.0,16_51_16_108366
2681,644.0,16_51_16_108399
2682,653.0,16_51_16_108450
2683,655.0,16_51_16_108483
2684,657.0,16_51_16_108517
2685,657.0,16_51_17_108566
2686,658.0,16_51_17_108599
2687,658.0,16_51_17_108649
2688,658.0,16_51_17_108683
2689,657.0,16_51_17_108716
2690,658.0,16_51_17_108766
2691,658.0,16_51_17_108800
2692,657.0,16_51_17_108849
2693,656.0,16_51_17_108883
2694,656.0,16_51_17_108933
2695,654.0,16_51_17_108966
2696,629.0,16_51_17_108999
2697,645.0,16_51_17_109050
2698,652.0,16_51_17_109083
2699,656.0,16_51_17_109133
2700,658.0,16_51_17_109167
2701,656.0,16_51_17_109216
2702,653.0,16_51_17_109253
2703,650.0,16_51_17_109284
2704,647.0,16_51_17_109333
2705,644.0,16_51_17_109367
2706,641.0,16_51_17_109416
2707,638.0,16_51_17_109449
2708,635.0,16_51_17_109499
2709,632.0,16_51_17_109533
2710,630.0,16_51_18_109567
2711,627.0,16_51_18_109616
2712,624.0,16_51_18_109649
2713,622.0,16_51_18_109700
2714,619.0,16_51_18_109733
2715,616.0,16_51_18_109783
2716,612.0,16_51_18_109816
2717,608.0,16_51_18_109867
2718,639.0,16_51_18_109900
2719,651.0,16_51_18_109933
2720,656.0,16_51_18_109983
2721,657.0,16_51_18_110016
2722,658.0,16_51_18_110066
2723,658.0,16_51_18_110099
2724,658.0,16_51_18_110149
2725,658.0,16_51_18_110183
2726,658.0,16_51_18_110217
2727,658.0,16_51_18_110266
2728,658.0,16_51_18_110300
2729,659.0,16_51_18_110350
2730,658.0,16_51_18_110382
2731,659.0,16_51_18_110416
2732,659.0,16_51_18_110466
2733,659.0,16_51_18_110500
2734,658.0,16_51_19_110549
2735,658.0,16_51_19_110584
2736,657.0,16_51_19_110633
2737,654.0,16_51_19_110667
2738,651.0,16_51_19_110700
2739,648.0,16_51_19_110750
2740,645.0,16_51_19_110784
2741,642.0,16_51_19_110833
2742,640.0,16_51_19_110867
2743,637.0,16_51_19_110916
2744,634.0,16_51_19_110950
2745,631.0,16_51_19_110983
2746,628.0,16_51_19_111033
2747,625.0,16_51_19_111067
2748,622.0,16_51_19_111116
2749,620.0,16_51_19_111150
2750,617.0,16_51_19_111183
2751,614.0,16_51_19_111233
2752,611.0,16_51_19_111267
2753,608.0,16_51_19_111317
2754,605.0,16_51_19_111350
2755,600.0,16_51_19_111400
2756,636.0,16_51_19_111433
2757,649.0,16_51_19_111483
2758,655.0,16_51_19_111516
2759,657.0,16_51_20_111567
2760,658.0,16_51_20_111600
2761,658.0,16_51_20_111633
2762,658.0,16_51_20_111683
2763,658.0,16_51_20_111716
2764,658.0,16_51_20_111766
2765,658.0,16_51_20_111799
2766,659.0,16_51_20_111850
2767,659.0,16_51_20_111883
2768,659.0,16_51_20_111916
2769,659.0,16_51_20_111967
2770,659.0,16_51_20_112000
2771,659.0,16_51_20_112049
2772,659.0,16_51_20_112083
2773,659.0,16_51_20_112116
2774,660.0,16_51_20_112167
2775,657.0,16_51_20_112200
2776,654.0,16_51_20_112250
2777,651.0,16_51_20_112283
2778,649.0,16_51_20_112333
2779,646.0,16_51_20_112366
2780,643.0,16_51_20_112400
2781,640.0,16_51_20_112450
2782,637.0,16_51_20_112484
2783,634.0,16_51_20_112533
2784,631.0,16_51_21_112567
2785,628.0,16_51_21_112600
2786,625.0,16_51_21_112650
2787,622.0,16_51_21_112683
2788,618.0,16_51_21_112733
2789,642.0,16_51_21_112766
2790,652.0,16_51_21_112816
2791,656.0,16_51_21_112850
2792,657.0,16_51_21_112899
2793,658.0,16_51_21_112933
2794,658.0,16_51_21_112983
2795,658.0,16_51_21_113017
2796,658.0,16_51_21_113050
2797,658.0,16_51_21_113099
2798,659.0,16_51_21_113133
2799,658.0,16_51_21_113183
2800,658.0,16_51_21_113216
2801,658.0,16_51_21_113266
2802,658.0,16_51_21_113299
2803,659.0,16_51_21_113333
2804,659.0,16_51_21_113383
2805,659.0,16_51_21_113416
2806,659.0,16_51_21_113466
2807,660.0,16_51_21_113501
2808,657.0,16_51_21_113533
2809,654.0,16_51_22_113583
2810,651.0,16_51_22_113617
2811,648.0,16_51_22_113666
2812,645.0,16_51_22_113700
2813,642.0,16_51_22_113750
2814,640.0,16_51_22_113783
2815,637.0,16_51_22_113816
2816,634.0,16_51_22_113867
2817,631.0,16_51_22_113900
2818,628.0,16_51_22_113950
2819,625.0,16_51_22_113983
2820,622.0,16_51_22_114017
2821,619.0,16_51_22_114067
2822,616.0,16_51_22_114099
2823,641.0,16_51_22_114150
2824,652.0,16_51_22_114183
2825,656.0,16_51_22_114233
2826,657.0,16_51_22_114267
2827,658.0,16_51_22_114317
2828,658.0,16_51_22_114350
2829,658.0,16_51_22_114400
2830,658.0,16_51_22_114433
2831,658.0,16_51_22_114467
2832,658.0,16_51_22_114516
2833,659.0,16_51_23_114549
2834,659.0,16_51_23_114600
2835,659.0,16_51_23_114634
2836,659.0,16_51_23_114683
2837,658.0,16_51_23_114716
2838,658.0,16_51_23_114750
2839,658.0,16_51_23_114800
2840,659.0,16_51_23_114834
2841,656.0,16_51_23_114883
2842,654.0,16_51_23_114918
2843,651.0,16_51_23_114952
2844,649.0,16_51_23_115000
2845,646.0,16_51_23_115034
2846,643.0,16_51_23_115084
2847,640.0,16_51_23_115118
2848,637.0,16_51_23_115151
2849,634.0,16_51_23_115201
2850,631.0,16_51_23_115235
2851,628.0,16_51_23_115285
2852,625.0,16_51_23_115317
2853,623.0,16_51_23_115368
2854,620.0,16_51_23_115401
2855,617.0,16_51_23_115434
2856,614.0,16_51_23_115484
2857,641.0,16_51_23_115517
2858,652.0,16_51_24_115567
2859,655.0,16_51_24_115600
2860,657.0,16_51_24_115651
2861,658.0,16_51_24_115685
2862,658.0,16_51_24_115735
2863,658.0,16_51_24_115767
2864,658.0,16_51_24_115817
2865,658.0,16_51_24_115851
2866,658.0,16_51_24_115884
2867,659.0,16_51_24_115935
2868,658.0,16_51_24_115967
2869,659.0,16_51_24_116017
2870,659.0,16_51_24_116051
2871,659.0,16_51_24_116101
2872,659.0,16_51_24_116135
2873,659.0,16_51_24_116167
2874,659.0,16_51_24_116218
2875,657.0,16_51_24_116251
2876,654.0,16_51_24_116301
2877,651.0,16_51_24_116335
2878,648.0,16_51_24_116368
2879,645.0,16_51_24_116418
2880,643.0,16_51_24_116451
2881,640.0,16_51_24_116501
2882,637.0,16_51_24_116535
2883,634.0,16_51_25_116568
2884,631.0,16_51_25_116618
2885,628.0,16_51_25_116652
2886,625.0,16_51_25_116701
2887,622.0,16_51_25_116735
2888,619.0,16_51_25_116769
2889,616.0,16_51_25_116818
2890,641.0,16_51_25_116852
2891,652.0,16_51_25_116902
2892,656.0,16_51_25_116934
2893,657.0,16_51_25_116985
2894,658.0,16_51_25_117018
2895,658.0,16_51_25_117069
2896,658.0,16_51_25_117102
2897,658.0,16_51_25_117151
2898,658.0,16_51_25_117185
2899,658.0,16_51_25_117235
2900,659.0,16_51_25_117268
2901,659.0,16_51_25_117301
2902,659.0,16_51_25_117352
2903,659.0,16_51_25_117385
2904,659.0,16_51_25_117434
2905,659.0,16_51_25_117468
2906,659.0,16_51_25_117518
2907,659.0,16_51_26_117553
2908,656.0,16_51_26_117585
2909,653.0,16_51_26_117635
2910,651.0,16_51_26_117668
2911,648.0,16_51_26_117718
2912,645.0,16_51_26_117752
2913,642.0,16_51_26_117785
2914,639.0,16_51_26_117835
2915,635.0,16_51_26_117869
2916,634.0,16_51_26_117918
2917,631.0,16_51_26_117951
2918,628.0,16_51_26_118002
2919,625.0,16_51_26_118035
2920,622.0,16_51_26_118068
2921,619.0,16_51_26_118118
2922,616.0,16_51_26_118152
2923,613.0,16_51_26_118202
2924,608.0,16_51_26_118234
2925,639.0,16_51_26_118284
2926,651.0,16_51_26_118318
2927,655.0,16_51_26_118352
2928,657.0,16_51_26_118401
2929,658.0,16_51_26_118435
2930,658.0,16_51_26_118485
2931,658.0,16_51_26_118518
2932,658.0,16_51_27_118568
2933,658.0,16_51_27_118601
2934,658.0,16_51_27_118634
2935,658.0,16_51_27_118685
2936,659.0,16_51_27_118718
2937,659.0,16_51_27_118768
2938,659.0,16_51_27_118802
2939,659.0,16_51_27_118851
2940,659.0,16_51_27_118885
2941,658.0,16_51_27_118935
2942,660.0,16_51_27_118969
2943,657.0,16_51_27_119002
2944,654.0,16_51_27_119052
2945,651.0,16_51_27_119085
2946,648.0,16_51_27_119135
2947,646.0,16_51_27_119168
2948,643.0,16_51_27_119202
2949,640.0,16_51_27_119251
2950,637.0,16_51_27_119285
2951,634.0,16_51_27_119335
2952,631.0,16_51_27_119369
2953,628.0,16_51_27_119419
2954,625.0,16_51_27_119452
2955,622.0,16_51_27_119485
2956,644.0,16_51_27_119535
2957,653.0,16_51_28_119568
2958,656.0,16_51_28_119618
2959,657.0,16_51_28_119652
2960,658.0,16_51_28_119702
2961,658.0,16_51_28_119735
2962,658.0,16_51_28_119768
2963,658.0,16_51_28_119818
2964,658.0,16_51_28_119852
2965,658.0,16_51_28_119902
2966,659.0,16_51_28_119935
2967,659.0,16_51_28_119985
2968,659.0,16_51_28_120018
2969,659.0,16_51_28_120051
2970,659.0,16_51_28_120101
2971,659.0,16_51_28_120135
2972,659.0,16_51_28_120185
2973,658.0,16_51_28_120218
2974,659.0,16_51_28_120269
2975,657.0,16_51_28_120302
2976,654.0,16_51_28_120335
2977,651.0,16_51_28_120385
2978,648.0,16_51_28_120418
2979,645.0,16_51_28_120468
2980,642.0,16_51_28_120501
2981,639.0,16_51_29_120552
2982,637.0,16_51_29_120586
2983,634.0,16_51_29_120618
2984,631.0,16_51_29_120668
2985,628.0,16_51_29_120702
2986,625.0,16_51_29_120751
2987,622.0,16_51_29_120785
2988,619.0,16_51_29_120835
2989,616.0,16_51_29_120868
2990,611.0,16_51_29_120918
2991,640.0,16_51_29_120951
2992,651.0,16_51_29_120985
2993,655.0,16_51_29_121035
2994,657.0,16_51_29_121068
2995,658.0,16_51_29_121119
2996,658.0,16_51_29_121152
2997,658.0,16_51_29_121185
2998,658.0,16_51_29_121235
2999,658.0,16_51_29_121268
3000,658.0,16_51_29_121318
3001,658.0,16_51_29_121351
3002,658.0,16_51_29_121402
3003,659.0,16_51_29_121435
3004,659.0,16_51_29_121468
3005,659.0,16_51_29_121518
3006,659.0,16_51_30_121552
3007,659.0,16_51_30_121604
3008,657.0,16_51_30_121635
3009,654.0,16_51_30_121685
3010,651.0,16_51_30_121718
3011,648.0,16_51_30_121752
3012,645.0,16_51_30_121802
3013,643.0,16_51_30_121835
3014,640.0,16_51_30_121886
3015,637.0,16_51_30_121919
3016,635.0,16_51_30_121951
3017,632.0,16_51_30_122002
3018,629.0,16_51_30_122035
3019,626.0,16_51_30_122085
3020,623.0,16_51_30_122119
3021,620.0,16_51_30_122169
3022,617.0,16_51_30_122202
3023,614.0,16_51_30_122236
3024,611.0,16_51_30_122285
3025,606.0,16_51_30_122318
3026,638.0,16_51_30_122369
3027,650.0,16_51_30_122402
3028,655.0,16_51_30_122451
3029,657.0,16_51_30_122485
3030,657.0,16_51_30_122535
3031,658.0,16_51_31_122568
3032,658.0,16_51_31_122619
3033,658.0,16_51_31_122652
3034,658.0,16_51_31_122685
3035,658.0,16_51_31_122735
3036,658.0,16_51_31_122768
3037,658.0,16_51_31_122818
3038,659.0,16_51_31_122852
3039,659.0,16_51_31_122885
3040,659.0,16_51_31_122935
3041,659.0,16_51_31_122968
3042,659.0,16_51_31_123019
3043,657.0,16_51_31_123052
3044,654.0,16_51_31_123102
3045,651.0,16_51_31_123135
3046,648.0,16_51_31_123168
3047,645.0,16_51_31_123218
3048,642.0,16_51_31_123252
3049,640.0,16_51_31_123302
3050,637.0,16_51_31_123335
3051,634.0,16_51_31_123369
3052,631.0,16_51_31_123418
3053,628.0,16_51_31_123453
3054,625.0,16_51_31_123502
3055,645.0,16_51_31_123535
3056,654.0,16_51_32_123585
3057,649.0,16_51_32_123618
3058,655.0,16_51_32_123669
3059,657.0,16_51_32_123702
3060,658.0,16_51_32_123735
3061,658.0,16_51_32_123785
3062,658.0,16_51_32_123818
3063,658.0,16_51_32_123869
3064,657.0,16_51_32_123901
3065,657.0,16_51_32_123952
3066,658.0,16_51_32_123985
3067,658.0,16_51_32_124035
3068,659.0,16_51_32_124068
3069,659.0,16_51_32_124102
3070,659.0,16_51_32_124152
3071,659.0,16_51_32_124185
3072,659.0,16_51_32_124236
3073,656.0,16_51_32_124269
3074,654.0,16_51_32_124302
3075,651.0,16_51_32_124352
3076,648.0,16_51_32_124385
3077,645.0,16_51_32_124435
3078,642.0,16_51_32_124469
3079,640.0,16_51_32_124518
3080,637.0,16_51_33_124551
3081,634.0,16_51_33_124585
3082,632.0,16_51_33_124635
3083,629.0,16_51_33_124669
3084,626.0,16_51_33_124718
3085,623.0,16_51_33_124752
3086,620.0,16_51_33_124785
3087,617.0,16_51_33_124835
3088,612.0,16_51_33_124869
3089,640.0,16_51_33_124919
3090,651.0,16_51_33_124952
3091,655.0,16_51_33_125002
3092,657.0,16_51_33_125035
3093,658.0,16_51_33_125086
3094,658.0,16_51_33_125119
3095,658.0,16_51_33_125151
3096,658.0,16_51_33_125202
3097,658.0,16_51_33_125235
3098,658.0,16_51_33_125286
3099,658.0,16_51_33_125318
3100,658.0,16_51_33_125369
3101,658.0,16_51_33_125402
3102,659.0,16_51_33_125452
3103,659.0,16_51_33_125486
3104,657.0,16_51_33_125519
3105,654.0,16_51_34_125569
3106,651.0,16_51_34_125603
3107,648.0,16_51_34_125652
3108,645.0,16_51_34_125685
3109,643.0,16_51_34_125735
3110,640.0,16_51_34_125769
3111,637.0,16_51_34_125802
3112,634.0,16_51_34_125852
3113,632.0,16_51_34_125885
3114,629.0,16_51_34_125935
3115,626.0,16_51_34_125969
3116,623.0,16_51_34_126002
3117,620.0,16_51_34_126052
3118,617.0,16_51_34_126085
3119,615.0,16_51_34_126136
3120,612.0,16_51_34_126169
3121,608.0,16_51_34_126202
3122,639.0,16_51_34_126252
3123,651.0,16_51_34_126285
3124,655.0,16_51_34_126335
3125,657.0,16_51_34_126369
3126,657.0,16_51_34_126418
3127,658.0,16_51_34_126452
3128,658.0,16_51_34_126486
3129,658.0,16_51_34_126535
3130,658.0,16_51_35_126569
3131,658.0,16_51_35_126618
3132,658.0,16_51_35_126652
3133,659.0,16_51_35_126701
3134,658.0,16_51_35_126735
3135,659.0,16_51_35_126785
3136,658.0,16_51_35_126819
3137,659.0,16_51_35_126869
3138,659.0,16_51_35_126903
3139,657.0,16_51_35_126935
3140,655.0,16_51_35_126986
3141,652.0,16_51_35_127018
3142,649.0,16_51_35_127069
3143,646.0,16_51_35_127102
3144,643.0,16_51_35_127136
3145,640.0,16_51_35_127185
3146,637.0,16_51_35_127219
3147,635.0,16_51_35_127269
3148,632.0,16_51_35_127302
3149,629.0,16_51_35_127352
3150,626.0,16_51_35_127385
3151,624.0,16_51_35_127419
3152,621.0,16_51_35_127471
3153,618.0,16_51_35_127502
3154,615.0,16_51_36_127552
3155,611.0,16_51_36_127585
3156,640.0,16_51_36_127635
3157,651.0,16_51_36_127668
3158,655.0,16_51_36_127702
3159,657.0,16_51_36_127752
3160,657.0,16_51_36_127786
3161,658.0,16_51_36_127836
3162,658.0,16_51_36_127869
3163,658.0,16_51_36_127902
3164,658.0,16_51_36_127952
3165,658.0,16_51_36_127985
3166,658.0,16_51_36_128035
3167,658.0,16_51_36_128068
3168,658.0,16_51_36_128119
3169,659.0,16_51_36_128152
3170,659.0,16_51_36_128202
3171,660.0,16_51_36_128236
3172,657.0,16_51_36_128269
3173,654.0,16_51_36_128319
3174,651.0,16_51_36_128352
3175,648.0,16_51_36_128403
3176,645.0,16_51_36_128436
3177,642.0,16_51_36_128469
3178,639.0,16_51_36_128518
3179,636.0,16_51_37_128552
3180,634.0,16_51_37_128603
3181,631.0,16_51_37_128636
3182,628.0,16_51_37_128686
3183,626.0,16_51_37_128718
3184,623.0,16_51_37_128752
3185,620.0,16_51_37_128803
3186,617.0,16_51_37_128836
3187,614.0,16_51_37_128886
3188,611.0,16_51_37_128919
3189,608.0,16_51_37_128969
3190,639.0,16_51_37_129002
3191,650.0,16_51_37_129052
3192,655.0,16_51_37_129085
3193,657.0,16_51_37_129119
3194,658.0,16_51_37_129169
3195,658.0,16_51_37_129202
3196,658.0,16_51_37_129252
3197,658.0,16_51_37_129285
3198,658.0,16_51_37_129335
3199,658.0,16_51_37_129369
3200,658.0,16_51_37_129402
3201,658.0,16_51_37_129452
3202,659.0,16_51_37_129485
3203,659.0,16_51_37_129535
3204,658.0,16_51_38_129569
3205,658.0,16_51_38_129618
3206,659.0,16_51_38_129652
3207,659.0,16_51_38_129687
3208,657.0,16_51_38_129736
3209,654.0,16_51_38_129768
3210,651.0,16_51_38_129819
3211,648.0,16_51_38_129852
3212,645.0,16_51_38_129886
3213,642.0,16_51_38_129936
3214,640.0,16_51_38_129969
3215,637.0,16_51_38_130018
3216,634.0,16_51_38_130053
3217,631.0,16_51_38_130102
3218,628.0,16_51_38_130135
3219,625.0,16_51_38_130168
3220,622.0,16_51_38_130219
3221,620.0,16_51_38_130253
3222,617.0,16_51_38_130303
3223,614.0,16_51_38_130335
3224,611.0,16_51_38_130386
3225,639.0,16_51_38_130418
3226,651.0,16_51_38_130452
3227,655.0,16_51_38_130502
3228,657.0,16_51_38_130536
3229,658.0,16_51_39_130585
3230,658.0,16_51_39_130619
3231,658.0,16_51_39_130669
3232,658.0,16_51_39_130702
3233,658.0,16_51_39_130752
3234,658.0,16_51_39_130785
3235,658.0,16_51_39_130836
3236,658.0,16_51_39_130869
3237,658.0,16_51_39_130902
3238,658.0,16_51_39_130952
3239,659.0,16_51_39_130985
3240,659.0,16_51_39_131036
3241,659.0,16_51_39_131069
3242,659.0,16_51_39_131102
3243,660.0,16_51_39_131153
3244,657.0,16_51_39_131186
3245,654.0,16_51_39_131236
3246,651.0,16_51_39_131269
3247,648.0,16_51_39_131302
3248,645.0,16_51_39_131352
3249,642.0,16_51_39_131385
3250,640.0,16_51_39_131435
3251,637.0,16_51_39_131469
3252,634.0,16_51_39_131519
3253,631.0,16_51_40_131552
3254,628.0,16_51_40_131586
3255,625.0,16_51_40_131635
3256,622.0,16_51_40_131669
3257,619.0,16_51_40_131718
3258,616.0,16_51_40_131752
3259,613.0,16_51_40_131802
3260,610.0,16_51_40_131836
3261,607.0,16_51_40_131868
3262,638.0,16_51_40_131919
3263,650.0,16_51_40_131952
3264,655.0,16_51_40_132002
3265,656.0,16_51_40_132036
3266,657.0,16_51_40_132086
3267,657.0,16_51_40_132119
3268,657.0,16_51_40_132169
3269,657.0,16_51_40_132203
3270,658.0,16_51_40_132236
3271,659.0,16_51_40_132285
3272,658.0,16_51_40_132318
3273,658.0,16_51_40_132369
3274,658.0,16_51_40_132402
3275,658.0,16_51_40_132452
3276,658.0,16_51_40_132485
3277,658.0,16_51_40_132518
3278,659.0,16_51_41_132570
3279,657.0,16_51_41_132603
3280,654.0,16_51_41_132652
3281,651.0,16_51_41_132686
3282,648.0,16_51_41_132736
3283,645.0,16_51_41_132769
3284,643.0,16_51_41_132803
3285,640.0,16_51_41_132853
3286,637.0,16_51_41_132885
3287,634.0,16_51_41_132936
3288,631.0,16_51_41_132969
3289,628.0,16_51_41_133003
3290,625.0,16_51_41_133052
3291,622.0,16_51_41_133086
3292,644.0,16_51_41_133135
3293,653.0,16_51_41_133169
3294,656.0,16_51_41_133219
3295,657.0,16_51_41_133252
3296,657.0,16_51_41_133286
3297,658.0,16_51_41_133336
3298,658.0,16_51_41_133369
3299,658.0,16_51_41_133419
3300,658.0,16_51_41_133452
3301,658.0,16_51_41_133502
3302,658.0,16_51_41_133535
3303,658.0,16_51_42_133585
3304,658.0,16_51_42_133618
3305,658.0,16_51_42_133669
3306,659.0,16_51_42_133702
3307,659.0,16_51_42_133736
3308,659.0,16_51_42_133785
3309,660.0,16_51_42_133820
3310,657.0,16_51_42_133869
3311,654.0,16_51_42_133903
3312,651.0,16_51_42_133953
3313,648.0,16_51_42_133987
3314,645.0,16_51_42_134019
3315,642.0,16_51_42_134069
3316,639.0,16_51_42_134102
3317,637.0,16_51_42_134152
3318,634.0,16_51_42_134186
3319,631.0,16_51_42_134219
3320,628.0,16_51_42_134269
3321,625.0,16_51_42_134302
3322,622.0,16_51_42_134352
3323,619.0,16_51_42_134386
3324,616.0,16_51_42_134436
3325,613.0,16_51_42_134469
3326,610.0,16_51_42_134503
3327,606.0,16_51_43_134553
3328,638.0,16_51_43_134586
3329,650.0,16_51_43_134635
3330,655.0,16_51_43_134669
3331,657.0,16_51_43_134703
3332,657.0,16_51_43_134753
3333,658.0,16_51_43_134785
3334,657.0,16_51_43_134835
3335,657.0,16_51_43_134869
3336,658.0,16_51_43_134919
3337,658.0,16_51_43_134952
3338,658.0,16_51_43_135003
3339,658.0,16_51_43_135036
3340,658.0,16_51_43_135069
3341,658.0,16_51_43_135119
3342,658.0,16_51_43_135152
3343,658.0,16_51_43_135203
3344,657.0,16_51_43_135236
3345,654.0,16_51_43_135286
3346,651.0,16_51_43_135320
3347,648.0,16_51_43_135353
3348,645.0,16_51_43_135403
3349,642.0,16_51_43_135436
3350,639.0,16_51_43_135486
3351,637.0,16_51_43_135519
3352,634.0,16_51_44_135552
3353,631.0,16_51_44_135602
3354,628.0,16_51_44_135636
3355,625.0,16_51_44_135685
3356,622.0,16_51_44_135719
3357,620.0,16_51_44_135769
3358,617.0,16_51_44_135803
3359,614.0,16_51_44_135835
3360,611.0,16_51_44_135886
3361,608.0,16_51_44_135919
3362,605.0,16_51_44_135970
3363,602.0,16_51_44_136003
3364,636.0,16_51_44_136052
3365,649.0,16_51_44_136085
3366,654.0,16_51_44_136136
3367,656.0,16_51_44_136169
3368,657.0,16_51_44_136202
3369,657.0,16_51_44_136253
3370,657.0,16_51_44_136286
3371,658.0,16_51_44_136336
3372,658.0,16_51_44_136369
3373,658.0,16_51_44_136402
3374,658.0,16_51_44_136452
3375,658.0,16_51_44_136486
3376,658.0,16_51_44_136536
3377,658.0,16_51_45_136569
3378,658.0,16_51_45_136619
3379,658.0,16_51_45_136653
3380,657.0,16_51_45_136686
3381,654.0,16_51_45_136736
3382,651.0,16_51_45_136770
3383,648.0,16_51_45_136819
3384,645.0,16_51_45_136852
3385,643.0,16_51_45_136886
3386,640.0,16_51_45_136936
3387,637.0,16_51_45_136969
3388,634.0,16_51_45_137019
3389,631.0,16_51_45_137052
3390,628.0,16_51_45_137103
3391,625.0,16_51_45_137136
3392,622.0,16_51_45_137169
3393,619.0,16_51_45_137220
3394,616.0,16_51_45_137252
3395,642.0,16_51_45_137302
3396,651.0,16_51_45_137336
3397,655.0,16_51_45_137385
3398,657.0,16_51_45_137419
3399,657.0,16_51_45_137469
3400,658.0,16_51_45_137503
3401,658.0,16_51_46_137553
3402,658.0,16_51_46_137586
3403,658.0,16_51_46_137619
3404,658.0,16_51_46_137669
3405,658.0,16_51_46_137702
3406,658.0,16_51_46_137752
3407,658.0,16_51_46_137786
3408,658.0,16_51_46_137836
3409,658.0,16_51_46_137869
3410,658.0,16_51_46_137903
3411,658.0,16_51_46_137954
3412,656.0,16_51_46_137986
3413,654.0,16_51_46_138036
3414,650.0,16_51_46_138069
3415,648.0,16_51_46_138102
3416,645.0,16_51_46_138153
3417,643.0,16_51_46_138186
3418,640.0,16_51_46_138236
3419,637.0,16_51_46_138270
3420,634.0,16_51_46_138320
3421,631.0,16_51_46_138353
3422,629.0,16_51_46_138386
3423,625.0,16_51_46_138436
3424,623.0,16_51_46_138470
3425,620.0,16_51_46_138519
3426,617.0,16_51_47_138553
3427,614.0,16_51_47_138586
3428,611.0,16_51_47_138636
3429,608.0,16_51_47_138670
3430,605.0,16_51_47_138720
3431,602.0,16_51_47_138753
3432,599.0,16_51_47_138802
3433,634.0,16_51_47_138836
3434,649.0,16_51_47_138885
3435,654.0,16_51_47_138919
3436,656.0,16_51_47_138952
3437,260.0,16_51_47_139003
3438,470.0,16_51_47_139036
3439,517.0,16_51_47_139086
3440,516.0,16_51_47_139120
3441,527.0,16_51_47_139169
3442,471.0,16_51_47_139203
3443,422.0,16_51_47_139236
3444,377.0,16_51_47_139286
3445,332.0,16_51_47_139319
3446,290.0,16_51_47_139370
3447,254.0,16_51_47_139403
3448,212.0,16_51_47_139452
3449,207.0,16_51_47_139486
3450,208.0,16_51_47_139519
3451,206.0,16_51_48_139569
3452,197.0,16_51_48_139602
3453,184.0,16_51_48_139653
3454,171.0,16_51_48_139686
3455,161.0,16_51_48_139736
3456,184.0,16_51_48_139769
3457,217.0,16_51_48_139802
3458,255.0,16_51_48_139853
3459,296.0,16_51_48_139886
3460,338.0,16_51_48_139936
3461,384.0,16_51_48_139969
3462,454.0,16_51_48_140020
3463,475.0,16_51_48_140053
3464,492.0,16_51_48_140102
3465,502.0,16_51_48_140135
3466,517.0,16_51_48_140186
3467,545.0,16_51_48_140219
3468,552.0,16_51_48_140253
3469,536.0,16_51_48_140302
3470,474.0,16_51_48_140336
3471,425.0,16_51_48_140386
3472,378.0,16_51_48_140420
3473,331.0,16_51_48_140469
3474,290.0,16_51_48_140502
3475,254.0,16_51_48_140536
3476,231.0,16_51_49_140586
3477,211.0,16_51_49_140619
3478,203.0,16_51_49_140669
3479,203.0,16_51_49_140702
3480,192.0,16_51_49_140736
3481,175.0,16_51_49_140786
3482,163.0,16_51_49_140819
3483,170.0,16_51_49_140870
3484,188.0,16_51_49_140903
3485,222.0,16_51_49_140953
3486,266.0,16_51_49_140986
3487,310.0,16_51_49_141036
3488,355.0,16_51_49_141069
3489,402.0,16_51_49_141119
3490,421.0,16_51_49_141153
3491,469.0,16_51_49_141203
3492,493.0,16_51_49_141236
3493,505.0,16_51_49_141269
3494,524.0,16_51_49_141319
3495,518.0,16_51_49_141352
3496,496.0,16_51_49_141403
3497,455.0,16_51_49_141436
3498,428.0,16_51_49_141469
3499,401.0,16_51_49_141520
3500,356.0,16_51_50_141553
3501,317.0,16_51_50_141603
3502,280.0,16_51_50_141636
3503,248.0,16_51_50_141686
3504,232.0,16_51_50_141719
3505,214.0,16_51_50_141753
3506,209.0,16_51_50_141803
3507,207.0,16_51_50_141836
3508,195.0,16_51_50_141886
3509,175.0,16_51_50_141920
3510,185.0,16_51_50_141969
3511,184.0,16_51_50_142003
3512,202.0,16_51_50_142053
3513,237.0,16_51_50_142086
3514,279.0,16_51_50_142136
3515,324.0,16_51_50_142169
3516,368.0,16_51_50_142203
3517,415.0,16_51_50_142252
3518,457.0,16_51_50_142286
3519,484.0,16_51_50_142336
3520,502.0,16_51_50_142370
3521,509.0,16_51_50_142419
3522,528.0,16_51_50_142452
3523,538.0,16_51_50_142486
3524,506.0,16_51_50_142536
3525,465.0,16_51_51_142569
3526,421.0,16_51_51_142619
3527,392.0,16_51_51_142653
3528,354.0,16_51_51_142703
3529,313.0,16_51_51_142736
3530,273.0,16_51_51_142769
3531,241.0,16_51_51_142820
3532,219.0,16_51_51_142853
3533,207.0,16_51_51_142903
3534,202.0,16_51_51_142936
3535,205.0,16_51_51_142986
3536,188.0,16_51_51_143019
3537,168.0,16_51_51_143069
3538,166.0,16_51_51_143103
3539,174.0,16_51_51_143136
3540,197.0,16_51_51_143186
3541,234.0,16_51_51_143220
3542,277.0,16_51_51_143269
3543,322.0,16_51_51_143303
3544,367.0,16_51_51_143353
3545,414.0,16_51_51_143386
3546,454.0,16_51_51_143420
3547,483.0,16_51_51_143470
3548,502.0,16_51_51_143503
3549,511.0,16_51_52_143553
3550,528.0,16_51_52_143586
3551,528.0,16_51_52_143636
3552,504.0,16_51_52_143670
3553,477.0,16_51_52_143703
3554,436.0,16_51_52_143753
3555,396.0,16_51_52_143786
3556,355.0,16_51_52_143836
3557,312.0,16_51_52_143869
3558,276.0,16_51_52_143919
3559,244.0,16_51_52_143953
3560,224.0,16_51_52_143986
3561,210.0,16_51_52_144036
3562,205.0,16_51_52_144070
3563,204.0,16_51_52_144120
3564,190.0,16_51_52_144153
3565,175.0,16_51_52_144203
3566,166.0,16_51_52_144236
3567,167.0,16_51_52_144287
3568,194.0,16_51_52_144320
3569,230.0,16_51_52_144353
3570,273.0,16_51_52_144403
3571,318.0,16_51_52_144436
3572,362.0,16_51_52_144486
3573,410.0,16_51_52_144520
3574,459.0,16_51_53_144569
3575,484.0,16_51_53_144603
3576,502.0,16_51_53_144636
3577,511.0,16_51_53_144686
3578,528.0,16_51_53_144719
3579,532.0,16_51_53_144769
3580,511.0,16_51_53_144803
3581,479.0,16_51_53_144853
3582,443.0,16_51_53_144886
3583,405.0,16_51_53_144919
3584,363.0,16_51_53_144969
3585,319.0,16_51_53_145003
3586,282.0,16_51_53_145053
3587,247.0,16_51_53_145086
3588,220.0,16_51_53_145137
3589,209.0,16_51_53_145169
3590,203.0,16_51_53_145219
3591,213.0,16_51_53_145252
3592,193.0,16_51_53_145303
3593,179.0,16_51_53_145337
3594,164.0,16_51_53_145369
3595,165.0,16_51_53_145419
3596,188.0,16_51_53_145452
3597,224.0,16_51_53_145503
3598,322.0,16_51_53_145536
3599,332.0,16_51_54_145570
3600,364.0,16_51_54_145619
3601,404.0,16_51_54_145653
3602,443.0,16_51_54_145703
3603,478.0,16_51_54_145740
3604,499.0,16_51_54_145786
3605,540.0,16_51_54_145820
3606,537.0,16_51_54_145853
3607,543.0,16_51_54_145903
3608,526.0,16_51_54_145937
3609,493.0,16_51_54_145986
3610,458.0,16_51_54_146020
3611,419.0,16_51_54_146069
3612,337.0,16_51_54_146103
3613,317.0,16_51_54_146153
3614,285.0,16_51_54_146186
3615,253.0,16_51_54_146236
3616,226.0,16_51_54_146269
3617,208.0,16_51_54_146320
3618,201.0,16_51_54_146353
3619,170.0,16_51_54_146386
3620,185.0,16_51_54_146436
3621,176.0,16_51_54_146469
3622,164.0,16_51_54_146503
3623,163.0,16_51_55_146553
3624,178.0,16_51_55_146586
3625,207.0,16_51_55_146636
3626,310.0,16_51_55_146669
3627,311.0,16_51_55_146720
3628,343.0,16_51_55_146753
3629,384.0,16_51_55_146787
3630,430.0,16_51_55_146836
3631,466.0,16_51_55_146869
3632,489.0,16_51_55_146920
3633,522.0,16_51_55_146953
3634,522.0,16_51_55_147003
3635,536.0,16_51_55_147036
3636,541.0,16_51_55_147087
3637,524.0,16_51_55_147119
3638,495.0,16_51_55_147170
3639,458.0,16_51_55_147203
3640,434.0,16_51_55_147236
3641,376.0,16_51_55_147287
3642,324.0,16_51_55_147320
3643,282.0,16_51_55_147370
3644,246.0,16_51_55_147403
3645,220.0,16_51_55_147453
3646,205.0,16_51_55_147486
3647,209.0,16_51_55_147520
3648,202.0,16_51_56_147570
3649,188.0,16_51_56_147604
3650,168.0,16_51_56_147653
3651,155.0,16_51_56_147686
3652,158.0,16_51_56_147737
3653,177.0,16_51_56_147770
3654,194.0,16_51_56_147803
3655,248.0,16_51_56_147853
3656,298.0,16_51_56_147886
3657,344.0,16_51_56_147937
3658,387.0,16_51_56_147969
3659,425.0,16_51_56_148020
3660,468.0,16_51_56_148054
3661,487.0,16_51_56_148103
3662,508.0,16_51_56_148136
3663,524.0,16_51_56_148169
3664,542.0,16_51_56_148219
3665,538.0,16_51_56_148253
3666,512.0,16_51_56_148303
3667,480.0,16_51_56_148336
3668,442.0,16_51_56_148386
3669,396.0,16_51_56_148420
3670,353.0,16_51_56_148453
3671,310.0,16_51_56_148503
3672,272.0,16_51_56_148537
3673,240.0,16_51_57_148587
3674,216.0,16_51_57_148620
3675,204.0,16_51_57_148670
3676,198.0,16_51_57_148703
3677,196.0,16_51_57_148753
3678,182.0,16_51_57_148786
3679,166.0,16_51_57_148819
3680,154.0,16_51_57_148870
3681,161.0,16_51_57_148903
3682,187.0,16_51_57_148953
3683,224.0,16_51_57_148987
3684,265.0,16_51_57_149037
3685,314.0,16_51_57_149069
3686,362.0,16_51_57_149103
3687,408.0,16_51_57_149153
3688,445.0,16_51_57_149186
3689,475.0,16_51_57_149237
3690,498.0,16_51_57_149270
3691,510.0,16_51_57_149320
3692,526.0,16_51_57_149353
3693,539.0,16_51_57_149404
3694,528.0,16_51_57_149436
3695,501.0,16_51_57_149469
3696,465.0,16_51_57_149520
3697,443.0,16_51_58_149553
3698,395.0,16_51_58_149603
3699,348.0,16_51_58_149636
3700,309.0,16_51_58_149669
3701,274.0,16_51_58_149720
3702,245.0,16_51_58_149754
3703,223.0,16_51_58_149803
3704,212.0,16_51_58_149836
3705,209.0,16_51_58_149887
3706,202.0,16_51_58_149920
3707,186.0,16_51_58_149970
3708,170.0,16_51_58_150003
3709,162.0,16_51_58_150037
3710,168.0,16_51_58_150086
3711,197.0,16_51_58_150120
3712,240.0,16_51_58_150170
3713,282.0,16_51_58_150203
3714,325.0,16_51_58_150253
3715,366.0,16_51_58_150287
3716,413.0,16_51_58_150336
3717,448.0,16_51_58_150369
3718,478.0,16_51_58_150420
3719,503.0,16_51_58_150453
3720,511.0,16_51_58_150487
3721,529.0,16_51_58_150537
3722,541.0,16_51_59_150570
3723,526.0,16_51_59_150620
3724,498.0,16_51_59_150653
3725,465.0,16_51_59_150686
3726,438.0,16_51_59_150737
3727,384.0,16_51_59_150770
3728,337.0,16_51_59_150820
3729,296.0,16_51_59_150853
3730,263.0,16_51_59_150903
3731,233.0,16_51_59_150937
3732,214.0,16_51_59_150970
3733,166.0,16_51_59_151020
3734,189.0,16_51_59_151053
3735,192.0,16_51_59_151103
3736,180.0,16_51_59_151136
3737,166.0,16_51_59_151187
3738,158.0,16_51_59_151220
3739,169.0,16_51_59_151270
3740,324.0,16_51_59_151303
3741,283.0,16_51_59_151336
3742,301.0,16_51_59_151386
3743,337.0,16_51_59_151420
3744,397.0,16_51_59_151469
3745,435.0,16_51_59_151503
3746,471.0,16_52_0_151553
3747,510.0,16_52_0_151586
3748,514.0,16_52_0_151620
3749,517.0,16_52_0_151670
3750,530.0,16_52_0_151704
3751,531.0,16_52_0_151753
3752,511.0,16_52_0_151787
3753,482.0,16_52_0_151836
3754,485.0,16_52_0_151870
3755,421.0,16_52_0_151903
3756,380.0,16_52_0_151953
3757,324.0,16_52_0_151987
3758,286.0,16_52_0_152037
3759,250.0,16_52_0_152070
3760,224.0,16_52_0_152119
3761,237.0,16_52_0_152153
3762,210.0,16_52_0_152203
3763,204.0,16_52_0_152237
3764,195.0,16_52_0_152286
3765,180.0,16_52_0_152320
3766,163.0,16_52_0_152353
3767,162.0,16_52_0_152403
3768,160.0,16_52_0_152436
3769,202.0,16_52_0_152486
3770,246.0,16_52_0_152520
3771,291.0,16_52_1_152553
3772,334.0,16_52_1_152603
3773,379.0,16_52_1_152636
3774,425.0,16_52_1_152686
3775,477.0,16_52_1_152720
3776,493.0,16_52_1_152770
3777,507.0,16_52_1_152803
3778,513.0,16_52_1_152837
3779,530.0,16_52_1_152886
3780,536.0,16_52_1_152920
3781,515.0,16_52_1_152970
3782,509.0,16_52_1_153003
3783,459.0,16_52_1_153053
3784,414.0,16_52_1_153087
3785,369.0,16_52_1_153136
3786,325.0,16_52_1_153169
3787,285.0,16_52_1_153220
3788,252.0,16_52_1_153253
3789,164.0,16_52_1_153287
3790,189.0,16_52_1_153337
3791,194.0,16_52_1_153370
3792,197.0,16_52_1_153420
3793,193.0,16_52_1_153453
3794,178.0,16_52_1_153503
3795,162.0,16_52_1_153536
3796,73.0,16_52_2_153570
3797,143.0,16_52_2_153620
3798,187.0,16_52_2_153653
3799,231.0,16_52_2_153703
3800,275.0,16_52_2_153736
3801,320.0,16_52_2_153770
3802,362.0,16_52_2_153820
3803,412.0,16_52_2_153854
3804,449.0,16_52_2_153903
3805,489.0,16_52_2_153937
3806,504.0,16_52_2_153986
3807,512.0,16_52_2_154020
3808,528.0,16_52_2_154070
3809,542.0,16_52_2_154104
3810,537.0,16_52_2_154154
3811,503.0,16_52_2_154187
3812,467.0,16_52_2_154220
3813,431.0,16_52_2_154270
3814,388.0,16_52_2_154303
3815,346.0,16_52_2_154353
3816,306.0,16_52_2_154387
3817,284.0,16_52_2_154436
3818,249.0,16_52_2_154470
3819,225.0,16_52_2_154504
3820,213.0,16_52_3_154553
3821,207.0,16_52_3_154587
3822,204.0,16_52_3_154637
3823,189.0,16_52_3_154670
3824,160.0,16_52_3_154720
3825,162.0,16_52_3_154753
3826,167.0,16_52_3_154786
3827,188.0,16_52_3_154836
3828,219.0,16_52_3_154870
3829,255.0,16_52_3_154920
3830,295.0,16_52_3_154953
3831,333.0,16_52_3_155003
3832,376.0,16_52_3_155037
3833,421.0,16_52_3_155086
3834,457.0,16_52_3_155120
3835,482.0,16_52_3_155153
3836,497.0,16_52_3_155203
3837,517.0,16_52_3_155237
3838,535.0,16_52_3_155287
3839,530.0,16_52_3_155320
3840,506.0,16_52_3_155370
3841,473.0,16_52_3_155404
3842,441.0,16_52_3_155453
3843,406.0,16_52_3_155487
3844,368.0,16_52_3_155520
3845,324.0,16_52_4_155570
3846,291.0,16_52_4_155604
3847,260.0,16_52_4_155653
3848,236.0,16_52_4_155687
3849,220.0,16_52_4_155720
3850,210.0,16_52_4_155770
3851,206.0,16_52_4_155803
3852,190.0,16_52_4_155854
3853,176.0,16_52_4_155886
3854,170.0,16_52_4_155936
3855,170.0,16_52_4_155970
3856,191.0,16_52_4_156020
3857,223.0,16_52_4_156053
3858,264.0,16_52_4_156086
3859,309.0,16_52_4_156136
3860,354.0,16_52_4_156170
3861,396.0,16_52_4_156220
3862,439.0,16_52_4_156253
3863,472.0,16_52_4_156303
3864,493.0,16_52_4_156337
3865,501.0,16_52_4_156387
3866,470.0,16_52_4_156420
3867,519.0,16_52_4_156454
3868,531.0,16_52_4_156503
3869,512.0,16_52_4_156537
3870,477.0,16_52_5_156587
3871,440.0,16_52_5_156620
3872,399.0,16_52_5_156654
3873,344.0,16_52_5_156704
3874,310.0,16_52_5_156737
3875,276.0,16_52_5_156787
3876,246.0,16_52_5_156820
3877,222.0,16_52_5_156870
3878,208.0,16_52_5_156903
3879,202.0,16_52_5_156953
3880,208.0,16_52_5_156987
3881,196.0,16_52_5_157020
3882,178.0,16_52_5_157070
3883,163.0,16_52_5_157103
3884,164.0,16_52_5_157154
3885,178.0,16_52_5_157186
3886,207.0,16_52_5_157237
3887,244.0,16_52_5_157271
3888,288.0,16_52_5_157320
3889,330.0,16_52_5_157354
3890,372.0,16_52_5_157387
3891,416.0,16_52_5_157437
3892,456.0,16_52_5_157471
3893,484.0,16_52_5_157521
3894,506.0,16_52_6_157554
3895,512.0,16_52_6_157603
3896,529.0,16_52_6_157637
3897,538.0,16_52_6_157670
3898,522.0,16_52_6_157720
3899,491.0,16_52_6_157753
3900,456.0,16_52_6_157804
3901,424.0,16_52_6_157837
3902,380.0,16_52_6_157886
3903,336.0,16_52_6_157921
3904,279.0,16_52_6_157953
3905,253.0,16_52_6_158004
3906,228.0,16_52_6_158037
3907,211.0,16_52_6_158087
3908,193.0,16_52_6_158120
3909,197.0,16_52_6_158170
3910,198.0,16_52_6_158203
3911,186.0,16_52_6_158254
3912,171.0,16_52_6_158287
3913,164.0,16_52_6_158337
3914,172.0,16_52_6_158370
3915,196.0,16_52_6_158404
3916,230.0,16_52_6_158454
3917,269.0,16_52_6_158486
3918,337.0,16_52_6_158537
3919,363.0,16_52_7_158570
3920,400.0,16_52_7_158604
3921,441.0,16_52_7_158653
3922,474.0,16_52_7_158686
3923,494.0,16_52_7_158737
3924,506.0,16_52_7_158770
3925,480.0,16_52_7_158820
3926,518.0,16_52_7_158853
3927,522.0,16_52_7_158887
3928,500.0,16_52_7_158937
3929,460.0,16_52_7_158970
3930,431.0,16_52_7_159021
3931,393.0,16_52_7_159054
3932,323.0,16_52_7_159104
3933,302.0,16_52_7_159137
3934,273.0,16_52_7_159187
3935,245.0,16_52_7_159220
3936,225.0,16_52_7_159271
3937,211.0,16_52_7_159303
3938,204.0,16_52_7_159337
3939,87.0,16_52_7_159387
3940,162.0,16_52_7_159421
3941,173.0,16_52_7_159470
3942,168.0,16_52_7_159504
3943,164.0,16_52_8_159553
3944,178.0,16_52_8_159587
3945,205.0,16_52_8_159620
3946,266.0,16_52_8_159671
3947,291.0,16_52_8_159704
3948,329.0,16_52_8_159753
3949,370.0,16_52_8_159787
3950,412.0,16_52_8_159820
3951,450.0,16_52_8_159870
3952,477.0,16_52_8_159903
3953,535.0,16_52_8_159954
3954,522.0,16_52_8_159987
3955,529.0,16_52_8_160037
3956,538.0,16_52_8_160070
3957,520.0,16_52_8_160120
3958,490.0,16_52_8_160154
3959,455.0,16_52_8_160203
3960,447.0,16_52_8_160237
3961,385.0,16_52_8_160270
3962,332.0,16_52_8_160320
3963,287.0,16_52_8_160354
3964,248.0,16_52_8_160404
3965,217.0,16_52_8_160437
3966,194.0,16_52_8_160487
3967,184.0,16_52_8_160521
3968,182.0,16_52_9_160571
3969,180.0,16_52_9_160604
3970,155.0,16_52_9_160637
3971,130.0,16_52_9_160687
3972,122.0,16_52_9_160721
3973,134.0,16_52_9_160770
3974,62.0,16_52_9_160804
3975,241.0,16_52_9_160837
3976,500.0,16_52_9_160887
3977,595.0,16_52_9_160920
3978,632.0,16_52_9_160970
3979,647.0,16_52_9_161004
3980,653.0,16_52_9_161053
3981,656.0,16_52_9_161087
3982,657.0,16_52_9_161121
3983,658.0,16_52_9_161170
3984,658.0,16_52_9_161204
3985,658.0,16_52_9_161254
3986,658.0,16_52_9_161287
3987,658.0,16_52_9_161337
3988,658.0,16_52_9_161371
3989,658.0,16_52_9_161420
3990,658.0,16_52_9_161453
3991,658.0,16_52_9_161487
3992,658.0,16_52_9_161537
3993,658.0,16_52_10_161571
3994,658.0,16_52_10_161620
3995,658.0,16_52_10_161655
3996,657.0,16_52_10_161704
3997,653.0,16_52_10_161738
3998,650.0,16_52_10_161771
3999,647.0,16_52_10_161821
4000,643.0,16_52_10_161853
4001,640.0,16_52_10_161904
4002,637.0,16_52_10_161937
4003,634.0,16_52_10_161988
4004,632.0,16_52_10_162021
4005,630.0,16_52_10_162054
4006,627.0,16_52_10_162104
4007,624.0,16_52_10_162137
4008,621.0,16_52_10_162188
4009,616.0,16_52_10_162221
4010,612.0,16_52_10_162254
4011,609.0,16_52_10_162304
4012,607.0,16_52_10_162338
4013,602.0,16_52_10_162387
4014,637.0,16_52_10_162421
4015,649.0,16_52_10_162454
4016,654.0,16_52_10_162504
4017,656.0,16_52_10_162537
4018,657.0,16_52_11_162587
4019,658.0,16_52_11_162620
4020,658.0,16_52_11_162670
4021,658.0,16_52_11_162704
4022,657.0,16_52_11_162754
4023,657.0,16_52_11_162787
4024,658.0,16_52_11_162837
4025,658.0,16_52_11_162870
4026,658.0,16_52_11_162904
4027,658.0,16_52_11_162954
4028,658.0,16_52_11_162988
4029,657.0,16_52_11_163038
4030,653.0,16_52_11_163070
4031,650.0,16_52_11_163120
4032,647.0,16_52_11_163154
4033,644.0,16_52_11_163187
4034,642.0,16_52_11_163238
4035,639.0,16_52_11_163271
4036,636.0,16_52_11_163321
4037,633.0,16_52_11_163354
4038,630.0,16_52_11_163388
4039,627.0,16_52_11_163437
4040,625.0,16_52_11_163471
4041,622.0,16_52_11_163521
4042,619.0,16_52_12_163554
4043,617.0,16_52_12_163604
4044,614.0,16_52_12_163637
4045,611.0,16_52_12_163671
4046,609.0,16_52_12_163721
4047,606.0,16_52_12_163754
4048,603.0,16_52_12_163804
4049,598.0,16_52_12_163837
4050,635.0,16_52_12_163871
4051,649.0,16_52_12_163921
4052,655.0,16_52_12_163954
4053,657.0,16_52_12_164004
4054,657.0,16_52_12_164037
4055,658.0,16_52_12_164088
4056,658.0,16_52_12_164120
4057,658.0,16_52_12_164154
4058,657.0,16_52_12_164204
4059,658.0,16_52_12_164237
4060,658.0,16_52_12_164287
4061,657.0,16_52_12_164321
4062,658.0,16_52_12_164370
4063,658.0,16_52_12_164404
4064,659.0,16_52_12_164454
4065,658.0,16_52_12_164487
4066,659.0,16_52_12_164537
4067,659.0,16_52_13_164571
4068,658.0,16_52_13_164604
4069,660.0,16_52_13_164655
4070,657.0,16_52_13_164687
4071,654.0,16_52_13_164737
4072,650.0,16_52_13_164771
4073,648.0,16_52_13_164805
4074,645.0,16_52_13_164854
4075,642.0,16_52_13_164887
4076,639.0,16_52_13_164938
4077,637.0,16_52_13_164970
4078,634.0,16_52_13_165021
4079,631.0,16_52_13_165054
4080,628.0,16_52_13_165088
4081,625.0,16_52_13_165137
4082,622.0,16_52_13_165171
4083,620.0,16_52_13_165221
4084,617.0,16_52_13_165255
4085,614.0,16_52_13_165304
4086,611.0,16_52_13_165338
4087,608.0,16_52_13_165371
4088,639.0,16_52_13_165420
4089,650.0,16_52_13_165454
4090,655.0,16_52_13_165504
4091,656.0,16_52_13_165537
4092,657.0,16_52_14_165587
4093,657.0,16_52_14_165620
4094,658.0,16_52_14_165654
4095,658.0,16_52_14_165704
4096,658.0,16_52_14_165737
4097,658.0,16_52_14_165787
4098,658.0,16_52_14_165821
4099,658.0,16_52_14_165871
4100,658.0,16_52_14_165904
4101,658.0,16_52_14_165937
4102,658.0,16_52_14_165987
4103,658.0,16_52_14_166021
4104,658.0,16_52_14_166070
4105,660.0,16_52_14_166105
4106,657.0,16_52_14_166155
4107,654.0,16_52_14_166187
4108,651.0,16_52_14_166221
4109,648.0,16_52_14_166271
4110,645.0,16_52_14_166304
4111,642.0,16_52_14_166354
4112,639.0,16_52_14_166388
4113,636.0,16_52_14_166438
4114,634.0,16_52_14_166471
4115,631.0,16_52_14_166505
4116,628.0,16_52_15_166554
4117,625.0,16_52_15_166588
4118,622.0,16_52_15_166638
4119,619.0,16_52_15_166671
4120,616.0,16_52_15_166704
4121,613.0,16_52_15_166755
4122,610.0,16_52_15_166788
4123,607.0,16_52_15_166837
4124,604.0,16_52_15_166871
4125,600.0,16_52_15_166921
4126,598.0,16_52_15_166954
4127,634.0,16_52_15_167004
4128,649.0,16_52_15_167037
4129,654.0,16_52_15_167071
4130,656.0,16_52_15_167121
4131,657.0,16_52_15_167155
4132,657.0,16_52_15_167204
4133,658.0,16_52_15_167238
4134,658.0,16_52_15_167288
4135,658.0,16_52_15_167321
4136,658.0,16_52_15_167354
4137,658.0,16_52_15_167404
4138,659.0,16_52_15_167438
4139,658.0,16_52_15_167487
4140,659.0,16_52_15_167520
4141,659.0,16_52_16_167571
4142,659.0,16_52_16_167604
4143,660.0,16_52_16_167638
4144,657.0,16_52_16_167687
4145,654.0,16_52_16_167721
4146,651.0,16_52_16_167771
4147,648.0,16_52_16_167804
4148,646.0,16_52_16_167837
4149,643.0,16_52_16_167887
4150,640.0,16_52_16_167921
4151,637.0,16_52_16_167971
4152,634.0,16_52_16_168005
4153,631.0,16_52_16_168054
4154,628.0,16_52_16_168088
4155,624.0,16_52_16_168138
4156,645.0,16_52_16_168170
4157,653.0,16_52_16_168204
4158,656.0,16_52_16_168254
4159,657.0,16_52_16_168288
4160,657.0,16_52_16_168338
4161,658.0,16_52_16_168371
4162,658.0,16_52_16_168421
4163,658.0,16_52_16_168454
4164,658.0,16_52_16_168504
4165,658.0,16_52_16_168538
4166,658.0,16_52_17_168571
4167,658.0,16_52_17_168621
4168,658.0,16_52_17_168654
4169,658.0,16_52_17_168704
4170,659.0,16_52_17_168738
4171,659.0,16_52_17_168787
4172,659.0,16_52_17_168821
4173,659.0,16_52_17_168854
4174,657.0,16_52_17_168904
4175,654.0,16_52_17_168938
4176,651.0,16_52_17_168971
4177,648.0,16_52_17_169021
4178,645.0,16_52_17_169054
4179,642.0,16_52_17_169105
4180,639.0,16_52_17_169138
4181,636.0,16_52_17_169187
4182,633.0,16_52_17_169221
4183,631.0,16_52_17_169254
4184,628.0,16_52_17_169304
4185,625.0,16_52_17_169338
4186,622.0,16_52_17_169388
4187,619.0,16_52_17_169421
4188,616.0,16_52_17_169471
4189,613.0,16_52_17_169505
4190,610.0,16_52_17_169537
4191,639.0,16_52_18_169588
4192,651.0,16_52_18_169621
4193,655.0,16_52_18_169671
4194,657.0,16_52_18_169705
4195,658.0,16_52_18_169754
4196,658.0,16_52_18_169788
4197,658.0,16_52_18_169838
4198,658.0,16_52_18_169871
4199,658.0,16_52_18_169921
4200,658.0,16_52_18_169954
4201,658.0,16_52_18_169988
4202,658.0,16_52_18_170038
4203,658.0,16_52_18_170071
4204,658.0,16_52_18_170121
4205,658.0,16_52_18_170154
4206,659.0,16_52_18_170204
4207,658.0,16_52_18_170238
4208,658.0,16_52_18_170270
4209,658.0,16_52_18_170322
4210,657.0,16_52_18_170355
4211,654.0,16_52_18_170404
4212,651.0,16_52_18_170438
4213,648.0,16_52_18_170471
4214,645.0,16_52_18_170521
4215,642.0,16_52_19_170554
4216,639.0,16_52_19_170604
4217,636.0,16_52_19_170637
4218,633.0,16_52_19_170671
4219,630.0,16_52_19_170721
4220,627.0,16_52_19_170754
4221,624.0,16_52_19_170804
4222,621.0,16_52_19_170837
4223,617.0,16_52_19_170887
4224,642.0,16_52_19_170921
4225,651.0,16_52_19_170955
4226,655.0,16_52_19_171005
4227,657.0,16_52_19_171037
4228,657.0,16_52_19_171088
4229,658.0,16_52_19_171121
4230,658.0,16_52_19_171171
4231,658.0,16_52_19_171204
4232,658.0,16_52_19_171255
4233,658.0,16_52_19_171287
4234,658.0,16_52_19_171338
4235,659.0,16_52_19_171371
4236,659.0,16_52_19_171404
4237,659.0,16_52_19_171454
4238,659.0,16_52_19_171488
4239,659.0,16_52_19_171538
4240,660.0,16_52_20_171572
4241,657.0,16_52_20_171621
4242,654.0,16_52_20_171654
4243,651.0,16_52_20_171688
4244,648.0,16_52_20_171738
4245,645.0,16_52_20_171771
4246,642.0,16_52_20_171821
4247,640.0,16_52_20_171854
4248,637.0,16_52_20_171904
4249,634.0,16_52_20_171938
4250,632.0,16_52_20_171971
4251,629.0,16_52_20_172022
4252,626.0,16_52_20_172054
4253,622.0,16_52_20_172104
4254,619.0,16_52_20_172137
4255,616.0,16_52_20_172171
4256,641.0,16_52_20_172221
4257,651.0,16_52_20_172254
4258,655.0,16_52_20_172304
4259,657.0,16_52_20_172338
4260,658.0,16_52_20_172371
4261,658.0,16_52_20_172421
4262,658.0,16_52_20_172454
4263,658.0,16_52_20_172504
4264,658.0,16_52_20_172537
4265,658.0,16_52_21_172587
4266,658.0,16_52_21_172621
4267,658.0,16_52_21_172671
4268,658.0,16_52_21_172704
4269,658.0,16_52_21_172755
4270,659.0,16_52_21_172788
4271,659.0,16_52_21_172820
4272,659.0,16_52_21_172871
4273,659.0,16_52_21_172905
4274,657.0,16_52_21_172955
4275,654.0,16_52_21_172988
4276,651.0,16_52_21_173038
4277,649.0,16_52_21_173071
4278,646.0,16_52_21_173106
4279,643.0,16_52_21_173155
4280,640.0,16_52_21_173188
4281,637.0,16_52_21_173238
4282,634.0,16_52_21_173271
4283,631.0,16_52_21_173304
4284,628.0,16_52_21_173355
4285,625.0,16_52_21_173387
4286,622.0,16_52_21_173438
4287,617.0,16_52_21_173471
4288,642.0,16_52_21_173521
4289,652.0,16_52_22_173554
4290,656.0,16_52_22_173588
4291,657.0,16_52_22_173638
4292,658.0,16_52_22_173671
4293,658.0,16_52_22_173721
4294,658.0,16_52_22_173754
4295,658.0,16_52_22_173788
4296,658.0,16_52_22_173838
4297,658.0,16_52_22_173871
4298,659.0,16_52_22_173921
4299,658.0,16_52_22_173954
4300,658.0,16_52_22_174004
4301,659.0,16_52_22_174038
4302,659.0,16_52_22_174088
4303,658.0,16_52_22_174121
4304,659.0,16_52_22_174155
4305,657.0,16_52_22_174205
4306,654.0,16_52_22_174238
4307,651.0,16_52_22_174288
4308,648.0,16_52_22_174321
4309,646.0,16_52_22_174372
4310,643.0,16_52_22_174404
4311,640.0,16_52_22_174437
4312,637.0,16_52_22_174488
4313,634.0,16_52_22_174521
4314,631.0,16_52_23_174571
4315,628.0,16_52_23_174604
4316,625.0,16_52_23_174655
4317,622.0,16_52_23_174688
4318,619.0,16_52_23_174738
4319,642.0,16_52_23_174772
4320,652.0,16_52_23_174805
4321,655.0,16_52_23_174854
4322,657.0,16_52_23_174888
4323,657.0,16_52_23_174937
4324,658.0,16_52_23_174971
4325,658.0,16_52_23_175021
4326,658.0,16_52_23_175054
4327,658.0,16_52_23_175088
4328,658.0,16_52_23_175138
4329,658.0,16_52_23_175171
4330,658.0,16_52_23_175221
4331,659.0,16_52_23_175254
4332,659.0,16_52_23_175304
4333,659.0,16_52_23_175338
4334,659.0,16_52_23_175371
4335,659.0,16_52_23_175421
4336,658.0,16_52_23_175454
4337,658.0,16_52_23_175505
4338,656.0,16_52_23_175538
4339,654.0,16_52_24_175571
4340,651.0,16_52_24_175621
4341,648.0,16_52_24_175655
4342,645.0,16_52_24_175705
4343,642.0,16_52_24_175738
4344,639.0,16_52_24_175788
4345,636.0,16_52_24_175822
4346,633.0,16_52_24_175855
4347,630.0,16_52_24_175905
4348,627.0,16_52_24_175938
4349,646.0,16_52_24_175988
4350,653.0,16_52_24_176021
4351,656.0,16_52_24_176071
4352,657.0,16_52_24_176104
4353,658.0,16_52_24_176155
4354,658.0,16_52_24_176188
4355,658.0,16_52_24_176221
4356,658.0,16_52_24_176271
4357,658.0,16_52_24_176304
4358,658.0,16_52_24_176354
4359,658.0,16_52_24_176388
4360,659.0,16_52_24_176438
4361,659.0,16_52_24_176471
4362,658.0,16_52_24_176504
4363,659.0,16_52_25_176554
4364,659.0,16_52_25_176589
4365,656.0,16_52_25_176638
4366,653.0,16_52_25_176671
4367,651.0,16_52_25_176704
4368,648.0,16_52_25_176754
4369,645.0,16_52_25_176788
4370,642.0,16_52_25_176838
4371,640.0,16_52_25_176871
4372,637.0,16_52_25_176921
4373,634.0,16_52_25_176956
4374,632.0,16_52_25_176988
4375,629.0,16_52_25_177039
4376,626.0,16_52_25_177071
4377,623.0,16_52_25_177122
4378,620.0,16_52_25_177154
4379,616.0,16_52_25_177204
4380,613.0,16_52_25_177238
4381,610.0,16_52_25_177271
4382,607.0,16_52_25_177322
4383,604.0,16_52_25_177355
4384,601.0,16_52_25_177404
4385,597.0,16_52_25_177438
4386,634.0,16_52_25_177488
4387,649.0,16_52_25_177521
4388,654.0,16_52_26_177555
4389,656.0,16_52_26_177604
4390,657.0,16_52_26_177638
4391,658.0,16_52_26_177688
4392,658.0,16_52_26_177721
4393,658.0,16_52_26_177772
4394,658.0,16_52_26_177805
4395,659.0,16_52_26_177855
4396,659.0,16_52_26_177888
4397,658.0,16_52_26_177938
4398,658.0,16_52_26_177971
4399,660.0,16_52_26_178006
4400,657.0,16_52_26_178056
4401,654.0,16_52_26_178088
4402,651.0,16_52_26_178138
4403,648.0,16_52_26_178171
4404,645.0,16_52_26_178205
4405,642.0,16_52_26_178254
4406,639.0,16_52_26_178288
4407,636.0,16_52_26_178338
4408,633.0,16_52_26_178371
4409,630.0,16_52_26_178404
4410,627.0,16_52_26_178455
4411,624.0,16_52_26_178488
4412,621.0,16_52_26_178538
4413,619.0,16_52_27_178573
4414,615.0,16_52_27_178622
4415,613.0,16_52_27_178654
4416,610.0,16_52_27_178688
4417,607.0,16_52_27_178738
4418,604.0,16_52_27_178771
4419,637.0,16_52_27_178821
4420,649.0,16_52_27_178855
4421,655.0,16_52_27_178905
4422,657.0,16_52_27_178938
4423,657.0,16_52_27_178971
4424,658.0,16_52_27_179022
4425,658.0,16_52_27_179054
4426,658.0,16_52_27_179105
4427,658.0,16_52_27_179138
4428,658.0,16_52_27_179188
4429,658.0,16_52_27_179221
4430,659.0,16_52_27_179254
4431,658.0,16_52_27_179305
4432,659.0,16_52_27_179339
4433,657.0,16_52_27_179388
4434,654.0,16_52_27_179422
4435,651.0,16_52_27_179472
4436,648.0,16_52_27_179505
4437,645.0,16_52_27_179538
4438,642.0,16_52_28_179588
4439,639.0,16_52_28_179622
4440,636.0,16_52_28_179671
4441,633.0,16_52_28_179705
4442,631.0,16_52_28_179754
4443,628.0,16_52_28_179788
4444,625.0,16_52_28_179821
4445,622.0,16_52_28_179872
4446,619.0,16_52_28_179905
4447,616.0,16_52_28_179955
4448,613.0,16_52_28_179988
4449,610.0,16_52_28_180021
4450,607.0,16_52_28_180072
4451,604.0,16_52_28_180104
4452,601.0,16_52_28_180155
4453,635.0,16_52_28_180188
4454,649.0,16_52_28_180238
4455,654.0,16_52_28_180272
4456,656.0,16_52_28_180322
4457,657.0,16_52_28_180355
4458,657.0,16_52_28_180405
4459,658.0,16_52_28_180439
4460,658.0,16_52_28_180471
4461,658.0,16_52_28_180521
4462,658.0,16_52_29_180555
4463,658.0,16_52_29_180588
4464,658.0,16_52_29_180638
4465,658.0,16_52_29_180671
4466,658.0,16_52_29_180722
4467,657.0,16_52_29_180755
4468,654.0,16_52_29_180805
4469,651.0,16_52_29_180838
4470,648.0,16_52_29_180872
4471,645.0,16_52_29_180921
4472,642.0,16_52_29_180955
4473,639.0,16_52_29_181006
4474,636.0,16_52_29_181039
4475,633.0,16_52_29_181072
4476,631.0,16_52_29_181122
4477,628.0,16_52_29_181155
4478,625.0,16_52_29_181205
4479,622.0,16_52_29_181239
4480,619.0,16_52_29_181288
4481,616.0,16_52_29_181321
4482,613.0,16_52_29_181355
4483,610.0,16_52_29_181405
4484,607.0,16_52_29_181439
4485,604.0,16_52_29_181489
4486,599.0,16_52_29_181522
4487,635.0,16_52_30_181572
4488,649.0,16_52_30_181605
4489,655.0,16_52_30_181655
4490,656.0,16_52_30_181688
4491,657.0,16_52_30_181738
4492,657.0,16_52_30_181772
4493,658.0,16_52_30_181805
4494,658.0,16_52_30_181854
4495,658.0,16_52_30_181888
4496,659.0,16_52_30_181938
4497,659.0,16_52_30_181972
4498,658.0,16_52_30_182005
4499,659.0,16_52_30_182054
4500,659.0,16_52_30_182089
4501,657.0,16_52_30_182138
4502,654.0,16_52_30_182172
4503,651.0,16_52_30_182221
4504,648.0,16_52_30_182257
4505,645.0,16_52_30_182289
4506,642.0,16_52_30_182339
4507,639.0,16_52_30_182372
4508,636.0,16_52_30_182422
4509,634.0,16_52_30_182455
4510,631.0,16_52_30_182505
4511,628.0,16_52_30_182538
4512,625.0,16_52_31_182571
4513,622.0,16_52_31_182622
4514,619.0,16_52_31_182655
4515,616.0,16_52_31_182705
4516,613.0,16_52_31_182738
4517,610.0,16_52_31_182771
4518,606.0,16_52_31_182822
4519,602.0,16_52_31_182855
4520,636.0,16_52_31_182905
4521,650.0,16_52_31_182938
4522,655.0,16_52_31_182988
4523,657.0,16_52_31_183022
4524,657.0,16_52_31_183055
4525,658.0,16_52_31_183105
4526,658.0,16_52_31_183138
4527,658.0,16_52_31_183188
4528,658.0,16_52_31_183221
4529,658.0,16_52_31_183272
4530,658.0,16_52_31_183305
4531,658.0,16_52_31_183355
4532,658.0,16_52_31_183388
4533,658.0,16_52_31_183423
4534,655.0,16_52_31_183475
4535,653.0,16_52_31_183505
4536,650.0,16_52_32_183555
4537,647.0,16_52_32_183588
4538,644.0,16_52_32_183638
4539,641.0,16_52_32_183671
4540,639.0,16_52_32_183705
4541,636.0,16_52_32_183755
4542,633.0,16_52_32_183789
4543,629.0,16_52_32_183839
4544,626.0,16_52_32_183872
4545,623.0,16_52_32_183922
4546,619.0,16_52_32_183955
4547,617.0,16_52_32_183988
4548,614.0,16_52_32_184039
4549,611.0,16_52_32_184071
4550,608.0,16_52_32_184121
4551,603.0,16_52_32_184155
4552,637.0,16_52_32_184205
4553,649.0,16_52_32_184238
4554,654.0,16_52_32_184271
4555,656.0,16_52_32_184321
4556,260.0,16_52_32_184355
4557,459.0,16_52_32_184405
4558,526.0,16_52_32_184439
4559,540.0,16_52_32_184472
4560,531.0,16_52_32_184521
4561,490.0,16_52_33_184555
4562,445.0,16_52_33_184605
4563,395.0,16_52_33_184638
4564,344.0,16_52_33_184688
4565,298.0,16_52_33_184722
4566,257.0,16_52_33_184772
4567,228.0,16_52_33_184805
4568,209.0,16_52_33_184838
4569,201.0,16_52_33_184889
4570,201.0,16_52_33_184921
4571,185.0,16_52_33_184972
4572,161.0,16_52_33_185005
4573,150.0,16_52_33_185055
4574,137.0,16_52_33_185089
4575,179.0,16_52_33_185139
4576,228.0,16_52_33_185171
4577,277.0,16_52_33_185206
4578,328.0,16_52_33_185255
4579,373.0,16_52_33_185288
4580,416.0,16_52_33_185338
4581,508.0,16_52_33_185372
4582,503.0,16_52_33_185405
4583,510.0,16_52_33_185455
4584,522.0,16_52_33_185488
4585,541.0,16_52_33_185538
4586,537.0,16_52_34_185572
4587,508.0,16_52_34_185621
4588,472.0,16_52_34_185655
4589,428.0,16_52_34_185705
4590,380.0,16_52_34_185738
4591,330.0,16_52_34_185771
4592,287.0,16_52_34_185822
4593,248.0,16_52_34_185855
4594,220.0,16_52_34_185905
4595,219.0,16_52_34_185938
4596,204.0,16_52_34_185989
4597,202.0,16_52_34_186022
4598,183.0,16_52_34_186071
4599,158.0,16_52_34_186106
4600,150.0,16_52_34_186139
4601,163.0,16_52_34_186188
4602,72.0,16_52_34_186222
4603,335.0,16_52_34_186272
4604,469.0,16_52_34_186305
4605,532.0,16_52_34_186339
4606,540.0,16_52_34_186388
4607,215.0,16_52_34_186422
4608,94.0,16_52_34_186472
4609,74.0,16_52_34_186505
4610,107.0,16_52_35_186555
4611,136.0,16_52_35_186588
4612,174.0,16_52_35_186638
4613,198.0,16_52_35_186672
4614,203.0,16_52_35_186705
4615,202.0,16_52_35_186755
4616,202.0,16_52_35_186788
4617,205.0,16_52_35_186838
4618,212.0,16_52_35_186872
4619,206.0,16_52_35_186922
4620,196.0,16_52_35_186955
