X-Position,Current_Reading,Time_Stamp
0,50234.0,12_9_27_1796
1,236.0,12_9_27_1861
2,244.0,12_9_27_1897
3,237.0,12_9_27_1927
4,232.0,12_9_27_1960
5,237.0,12_9_27_2011
6,232.0,12_9_27_2044
7,235.0,12_9_27_2094
8,245.0,12_9_27_2127
9,233.0,12_9_27_2160
10,242.0,12_9_27_2210
11,239.0,12_9_28_2244
12,233.0,12_9_28_2294
13,236.0,12_9_28_2327
14,239.0,12_9_28_2377
15,236.0,12_9_28_2411
16,245.0,12_9_28_2461
17,245.0,12_9_28_2494
18,235.0,12_9_28_2527
19,244.0,12_9_28_2577
20,238.0,12_9_28_2611
21,233.0,12_9_28_2660
22,238.0,12_9_28_2694
23,241.0,12_9_28_2744
24,240.0,12_9_28_2777
25,238.0,12_9_28_2811
26,244.0,12_9_28_2860
27,239.0,12_9_28_2894
28,249.0,12_9_28_2944
29,243.0,12_9_28_2977
30,237.0,12_9_28_3027
31,239.0,12_9_28_3060
32,245.0,12_9_28_3094
33,248.0,12_9_28_3144
34,239.0,12_9_28_3177
35,236.0,12_9_29_3228
36,239.0,12_9_29_3260
37,246.0,12_9_29_3311
38,240.0,12_9_29_3344
39,240.0,12_9_29_3394
40,235.0,12_9_29_3427
41,239.0,12_9_29_3460
42,243.0,12_9_29_3510
43,247.0,12_9_29_3543
44,240.0,12_9_29_3594
45,242.0,12_9_29_3627
46,248.0,12_9_29_3677
47,244.0,12_9_29_3711
48,240.0,12_9_29_3761
49,243.0,12_9_29_3794
50,242.0,12_9_29_3828
51,238.0,12_9_29_3877
52,238.0,12_9_29_3911
53,240.0,12_9_29_3960
54,239.0,12_9_29_3994
55,248.0,12_9_29_4027
56,235.0,12_9_29_4077
57,238.0,12_9_29_4110
58,241.0,12_9_29_4161
59,239.0,12_9_29_4194
60,238.0,12_9_30_4244
61,236.0,12_9_30_4277
62,233.0,12_9_30_4327
63,236.0,12_9_30_4361
64,239.0,12_9_30_4394
65,239.0,12_9_30_4444
66,243.0,12_9_30_4477
67,235.0,12_9_30_4527
68,244.0,12_9_30_4560
69,236.0,12_9_30_4610
70,239.0,12_9_30_4644
71,235.0,12_9_30_4677
72,237.0,12_9_30_4727
73,233.0,12_9_30_4761
74,236.0,12_9_30_4811
75,236.0,12_9_30_4844
76,233.0,12_9_30_4894
77,237.0,12_9_30_4927
78,241.0,12_9_30_4977
79,241.0,12_9_30_5011
80,236.0,12_9_30_5044
81,233.0,12_9_30_5094
82,233.0,12_9_30_5127
83,236.0,12_9_30_5177
84,237.0,12_9_30_5211
85,240.0,12_9_31_5261
86,237.0,12_9_31_5294
87,242.0,12_9_31_5327
88,235.0,12_9_31_5377
89,236.0,12_9_31_5410
90,243.0,12_9_31_5461
91,240.0,12_9_31_5494
92,232.0,12_9_31_5544
93,245.0,12_9_31_5577
94,241.0,12_9_31_5611
95,240.0,12_9_31_5660
96,239.0,12_9_31_5694
97,232.0,12_9_31_5744
98,236.0,12_9_31_5778
99,242.0,12_9_31_5827
100,238.0,12_9_31_5860
101,246.0,12_9_31_5910
102,233.0,12_9_31_5944
103,235.0,12_9_31_5977
104,234.0,12_9_31_6027
105,237.0,12_9_31_6061
106,238.0,12_9_31_6111
107,238.0,12_9_31_6144
108,239.0,12_9_31_6194
109,238.0,12_9_32_6228
110,237.0,12_9_32_6261
111,235.0,12_9_32_6310
112,241.0,12_9_32_6344
113,246.0,12_9_32_6394
114,243.0,12_9_32_6427
115,241.0,12_9_32_6477
116,251.0,12_9_32_6510
117,262.0,12_9_32_6561
118,271.0,12_9_32_6593
119,286.0,12_9_32_6627
120,300.0,12_9_32_6677
121,318.0,12_9_32_6711
122,345.0,12_9_32_6761
123,343.0,12_9_32_6794
124,348.0,12_9_32_6844
125,343.0,12_9_32_6877
126,359.0,12_9_32_6910
127,398.0,12_9_32_6960
128,436.0,12_9_32_6994
129,461.0,12_9_32_7044
130,474.0,12_9_32_7078
131,488.0,12_9_32_7128
132,497.0,12_9_32_7161
133,496.0,12_9_32_7210
134,504.0,12_9_33_7244
135,498.0,12_9_33_7277
136,432.0,12_9_33_7327
137,377.0,12_9_33_7361
138,333.0,12_9_33_7411
139,294.0,12_9_33_7444
140,278.0,12_9_33_7494
141,248.0,12_9_33_7527
142,240.0,12_9_33_7561
143,238.0,12_9_33_7611
144,221.0,12_9_33_7644
145,268.0,12_9_33_7694
146,356.0,12_9_33_7727
147,407.0,12_9_33_7778
148,438.0,12_9_33_7811
149,468.0,12_9_33_7844
150,480.0,12_9_33_7894
151,486.0,12_9_33_7928
152,492.0,12_9_33_7978
153,505.0,12_9_33_8011
154,499.0,12_9_33_8061
155,462.0,12_9_33_8094
156,411.0,12_9_33_8128
157,358.0,12_9_33_8178
158,325.0,12_9_33_8211
159,309.0,12_9_34_8261
160,350.0,12_9_34_8294
161,402.0,12_9_34_8344
162,439.0,12_9_34_8378
163,462.0,12_9_34_8411
164,425.0,12_9_34_8461
165,357.0,12_9_34_8494
166,307.0,12_9_34_8544
167,277.0,12_9_34_8577
168,302.0,12_9_34_8611
169,370.0,12_9_34_8661
170,416.0,12_9_34_8694
171,388.0,12_9_34_8744
172,330.0,12_9_34_8777
173,286.0,12_9_34_8827
174,270.0,12_9_34_8861
175,273.0,12_9_34_8911
176,360.0,12_9_34_8944
177,398.0,12_9_34_8995
178,333.0,12_9_34_9028
179,290.0,12_9_34_9061
180,280.0,12_9_34_9110
181,342.0,12_9_34_9144
182,364.0,12_9_34_9194
183,319.0,12_9_35_9227
184,290.0,12_9_35_9278
185,371.0,12_9_35_9311
186,419.0,12_9_35_9344
187,390.0,12_9_35_9394
188,324.0,12_9_35_9427
189,293.0,12_9_35_9477
190,332.0,12_9_35_9511
191,392.0,12_9_35_9561
192,396.0,12_9_35_9594
193,327.0,12_9_35_9627
194,290.0,12_9_35_9677
195,262.0,12_9_35_9711
196,244.0,12_9_35_9761
197,238.0,12_9_35_9794
198,233.0,12_9_35_9844
199,223.0,12_9_35_9878
200,222.0,12_9_35_9928
201,220.0,12_9_35_9960
202,223.0,12_9_35_9994
203,222.0,12_9_35_10044
204,223.0,12_9_35_10077
205,216.0,12_9_35_10127
206,222.0,12_9_35_10161
207,222.0,12_9_35_10211
208,232.0,12_9_36_10244
209,327.0,12_9_36_10278
210,386.0,12_9_36_10327
211,432.0,12_9_36_10361
212,455.0,12_9_36_10411
213,479.0,12_9_36_10445
214,482.0,12_9_36_10494
215,496.0,12_9_36_10527
216,430.0,12_9_36_10561
217,346.0,12_9_36_10611
218,289.0,12_9_36_10644
219,256.0,12_9_36_10694
220,241.0,12_9_36_10728
221,231.0,12_9_36_10777
222,214.0,12_9_36_10810
223,209.0,12_9_36_10844
224,205.0,12_9_36_10894
225,206.0,12_9_36_10927
226,207.0,12_9_36_10978
227,200.0,12_9_36_11011
228,204.0,12_9_36_11061
229,210.0,12_9_36_11094
230,202.0,12_9_36_11145
231,208.0,12_9_36_11178
232,203.0,12_9_36_11210
233,205.0,12_9_37_11260
234,201.0,12_9_37_11294
235,208.0,12_9_37_11344
236,196.0,12_9_37_11378
237,207.0,12_9_37_11428
238,208.0,12_9_37_11460
239,267.0,12_9_37_11494
240,360.0,12_9_37_11544
241,401.0,12_9_37_11578
242,442.0,12_9_37_11628
243,461.0,12_9_37_11660
244,479.0,12_9_37_11711
245,491.0,12_9_37_11744
246,492.0,12_9_37_11777
247,437.0,12_9_37_11827
248,342.0,12_9_37_11860
249,288.0,12_9_37_11910
250,259.0,12_9_37_11944
251,236.0,12_9_37_11994
252,224.0,12_9_37_12027
253,219.0,12_9_37_12077
254,204.0,12_9_37_12110
255,208.0,12_9_37_12144
256,210.0,12_9_37_12194
257,202.0,12_9_38_12228
258,202.0,12_9_38_12278
259,200.0,12_9_38_12311
260,196.0,12_9_38_12361
261,199.0,12_9_38_12394
262,205.0,12_9_38_12427
263,200.0,12_9_38_12478
264,202.0,12_9_38_12510
265,204.0,12_9_38_12561
266,200.0,12_9_38_12594
267,199.0,12_9_38_12644
268,199.0,12_9_38_12677
269,203.0,12_9_38_12711
270,209.0,12_9_38_12761
271,204.0,12_9_38_12794
272,198.0,12_9_38_12844
273,209.0,12_9_38_12878
274,204.0,12_9_38_12928
275,206.0,12_9_38_12961
276,209.0,12_9_38_13011
277,203.0,12_9_38_13044
278,200.0,12_9_38_13077
279,202.0,12_9_38_13127
280,198.0,12_9_38_13160
281,202.0,12_9_38_13211
282,199.0,12_9_39_13245
283,202.0,12_9_39_13294
284,200.0,12_9_39_13328
285,208.0,12_9_39_13361
286,199.0,12_9_39_13411
287,210.0,12_9_39_13444
288,202.0,12_9_39_13494
289,200.0,12_9_39_13528
290,202.0,12_9_39_13578
291,202.0,12_9_39_13611
292,204.0,12_9_39_13661
293,200.0,12_9_39_13694
294,207.0,12_9_39_13727
295,198.0,12_9_39_13777
296,200.0,12_9_39_13811
297,205.0,12_9_39_13861
298,208.0,12_9_39_13894
299,208.0,12_9_39_13944
300,208.0,12_9_39_13977
301,196.0,12_9_39_14011
302,201.0,12_9_39_14060
303,210.0,12_9_39_14094
304,197.0,12_9_39_14144
305,201.0,12_9_39_14177
306,193.0,12_9_40_14228
307,200.0,12_9_40_14261
308,199.0,12_9_40_14311
309,206.0,12_9_40_14344
310,201.0,12_9_40_14378
311,200.0,12_9_40_14428
312,205.0,12_9_40_14460
313,199.0,12_9_40_14511
314,197.0,12_9_40_14544
315,202.0,12_9_40_14594
316,222.0,12_9_40_14627
317,326.0,12_9_40_14660
318,383.0,12_9_40_14711
319,424.0,12_9_40_14744
320,458.0,12_9_40_14794
321,473.0,12_9_40_14828
322,481.0,12_9_40_14861
323,491.0,12_9_40_14911
324,400.0,12_9_40_14944
325,324.0,12_9_40_14994
326,288.0,12_9_40_15028
327,252.0,12_9_40_15077
328,229.0,12_9_40_15111
329,223.0,12_9_40_15160
330,212.0,12_9_40_15195
331,204.0,12_9_41_15228
332,208.0,12_9_41_15278
333,200.0,12_9_41_15311
334,203.0,12_9_41_15361
335,212.0,12_9_41_15394
336,216.0,12_9_41_15444
337,256.0,12_9_41_15478
338,335.0,12_9_41_15528
339,398.0,12_9_41_15561
340,432.0,12_9_41_15595
341,458.0,12_9_41_15645
342,471.0,12_9_41_15678
343,438.0,12_9_41_15728
344,383.0,12_9_41_15761
345,331.0,12_9_41_15811
346,297.0,12_9_41_15844
347,267.0,12_9_41_15878
348,244.0,12_9_41_15927
349,234.0,12_9_41_15961
350,226.0,12_9_41_16011
351,208.0,12_9_41_16044
352,207.0,12_9_41_16094
353,208.0,12_9_41_16127
354,197.0,12_9_41_16161
355,206.0,12_9_41_16211
356,192.0,12_9_42_16244
357,200.0,12_9_42_16294
358,195.0,12_9_42_16327
359,199.0,12_9_42_16378
360,200.0,12_9_42_16411
361,199.0,12_9_42_16461
362,209.0,12_9_42_16495
363,199.0,12_9_42_16527
364,206.0,12_9_42_16578
365,204.0,12_9_42_16611
366,198.0,12_9_42_16661
367,215.0,12_9_42_16694
368,217.0,12_9_42_16744
369,219.0,12_9_42_16778
370,207.0,12_9_42_16811
371,216.0,12_9_42_16860
372,216.0,12_9_42_16894
373,270.0,12_9_42_16944
374,347.0,12_9_42_16977
375,365.0,12_9_42_17027
376,321.0,12_9_42_17061
377,288.0,12_9_42_17094
378,299.0,12_9_42_17144
379,377.0,12_9_42_17178
380,417.0,12_9_43_17228
381,374.0,12_9_43_17261
382,327.0,12_9_43_17311
383,371.0,12_9_43_17345
384,419.0,12_9_43_17394
385,360.0,12_9_43_17428
386,321.0,12_9_43_17461
387,361.0,12_9_43_17511
388,367.0,12_9_43_17544
389,318.0,12_9_43_17594
390,297.0,12_9_43_17628
391,365.0,12_9_43_17678
392,386.0,12_9_43_17711
393,337.0,12_9_43_17744
394,313.0,12_9_43_17794
395,380.0,12_9_43_17828
396,422.0,12_9_43_17878
397,394.0,12_9_43_17911
398,347.0,12_9_43_17961
399,408.0,12_9_43_17994
400,438.0,12_9_43_18045
401,382.0,12_9_43_18078
402,325.0,12_9_43_18111
403,324.0,12_9_43_18161
404,384.0,12_9_43_18194
405,399.0,12_9_44_18244
406,367.0,12_9_44_18277
407,339.0,12_9_44_18328
408,404.0,12_9_44_18361
409,433.0,12_9_44_18395
410,462.0,12_9_44_18444
411,481.0,12_9_44_18478
412,369.0,12_9_44_18527
413,307.0,12_9_44_18561
414,264.0,12_9_44_18611
415,232.0,12_9_44_18644
416,220.0,12_9_44_18677
417,212.0,12_9_44_18728
418,198.0,12_9_44_18761
419,195.0,12_9_44_18811
420,200.0,12_9_44_18844
421,192.0,12_9_44_18894
422,223.0,12_9_44_18928
423,321.0,12_9_44_18978
424,384.0,12_9_44_19011
425,433.0,12_9_44_19044
426,453.0,12_9_44_19094
427,433.0,12_9_44_19128
428,369.0,12_9_44_19178
429,328.0,12_9_44_19211
430,292.0,12_9_45_19261
431,257.0,12_9_45_19294
432,242.0,12_9_45_19328
433,230.0,12_9_45_19377
434,210.0,12_9_45_19411
435,208.0,12_9_45_19461
436,208.0,12_9_45_19494
437,193.0,12_9_45_19544
438,195.0,12_9_45_19577
439,192.0,12_9_45_19611
440,237.0,12_9_45_19661
441,330.0,12_9_45_19694
442,394.0,12_9_45_19744
443,432.0,12_9_45_19778
444,453.0,12_9_45_19828
445,479.0,12_9_45_19861
446,490.0,12_9_45_19894
447,491.0,12_9_45_19944
448,497.0,12_9_45_19978
449,442.0,12_9_45_20028
450,355.0,12_9_45_20061
451,296.0,12_9_45_20111
452,270.0,12_9_45_20144
453,239.0,12_9_45_20194
454,219.0,12_9_46_20227
455,216.0,12_9_46_20261
456,263.0,12_9_46_20311
457,347.0,12_9_46_20344
458,402.0,12_9_46_20394
459,401.0,12_9_46_20427
460,362.0,12_9_46_20478
461,328.0,12_9_46_20511
462,290.0,12_9_46_20544
463,273.0,12_9_46_20594
464,249.0,12_9_46_20628
465,226.0,12_9_46_20678
466,218.0,12_9_46_20711
467,215.0,12_9_46_20761
468,207.0,12_9_46_20795
469,212.0,12_9_46_20828
470,272.0,12_9_46_20878
471,347.0,12_9_46_20911
472,327.0,12_9_46_20961
473,309.0,12_9_46_20995
474,280.0,12_9_46_21044
475,266.0,12_9_46_21078
476,248.0,12_9_46_21128
477,242.0,12_9_46_21162
478,240.0,12_9_46_21194
479,242.0,12_9_47_21245
480,240.0,12_9_47_21277
481,232.0,12_9_47_21328
482,236.0,12_9_47_21361
483,231.0,12_9_47_21411
484,229.0,12_9_47_21445
485,249.0,12_9_47_21478
486,315.0,12_9_47_21527
487,314.0,12_9_47_21562
488,304.0,12_9_47_21611
489,288.0,12_9_47_21645
490,270.0,12_9_47_21695
491,256.0,12_9_47_21728
492,234.0,12_9_47_21778
493,232.0,12_9_47_21812
494,225.0,12_9_47_21845
495,220.0,12_9_47_21895
496,241.0,12_9_47_21928
497,325.0,12_9_47_21978
498,385.0,12_9_47_22011
499,435.0,12_9_47_22061
500,428.0,12_9_47_22094
501,372.0,12_9_47_22128
502,339.0,12_9_47_22178
503,303.0,12_9_47_22212
504,288.0,12_9_48_22262
505,276.0,12_9_48_22294
506,261.0,12_9_48_22345
507,252.0,12_9_48_22378
508,245.0,12_9_48_22411
509,238.0,12_9_48_22461
510,236.0,12_9_48_22494
511,247.0,12_9_48_22545
512,264.0,12_9_48_22577
513,284.0,12_9_48_22628
514,283.0,12_9_48_22662
515,273.0,12_9_48_22711
516,252.0,12_9_48_22744
517,245.0,12_9_48_22778
518,232.0,12_9_48_22827
519,238.0,12_9_48_22861
520,292.0,12_9_48_22911
521,362.0,12_9_48_22944
522,404.0,12_9_48_22995
523,417.0,12_9_48_23028
524,450.0,12_9_48_23061
525,418.0,12_9_48_23112
526,394.0,12_9_48_23145
527,351.0,12_9_48_23194
528,311.0,12_9_49_23227
529,278.0,12_9_49_23277
530,247.0,12_9_49_23311
531,232.0,12_9_49_23344
532,221.0,12_9_49_23394
533,215.0,12_9_49_23428
534,212.0,12_9_49_23477
535,214.0,12_9_49_23512
536,205.0,12_9_49_23561
537,204.0,12_9_49_23595
538,216.0,12_9_49_23645
539,212.0,12_9_49_23678
540,220.0,12_9_49_23711
541,229.0,12_9_49_23761
542,225.0,12_9_49_23794
543,220.0,12_9_49_23844
544,225.0,12_9_49_23878
545,215.0,12_9_49_23927
546,220.0,12_9_49_23961
547,224.0,12_9_49_23995
548,223.0,12_9_49_24045
549,218.0,12_9_49_24078
550,212.0,12_9_49_24128
551,212.0,12_9_49_24161
552,210.0,12_9_49_24211
553,218.0,12_9_50_24244
554,204.0,12_9_50_24278
555,208.0,12_9_50_24327
556,207.0,12_9_50_24361
557,214.0,12_9_50_24411
558,211.0,12_9_50_24445
559,202.0,12_9_50_24495
560,208.0,12_9_50_24528
561,199.0,12_9_50_24578
562,199.0,12_9_50_24611
563,202.0,12_9_50_24644
564,198.0,12_9_50_24695
565,204.0,12_9_50_24728
566,215.0,12_9_50_24778
567,237.0,12_9_50_24811
568,238.0,12_9_50_24862
569,238.0,12_9_50_24895
570,233.0,12_9_50_24928
571,236.0,12_9_50_24978
572,226.0,12_9_50_25011
573,228.0,12_9_50_25061
574,234.0,12_9_50_25094
575,220.0,12_9_50_25145
576,224.0,12_9_50_25178
577,219.0,12_9_50_25211
578,215.0,12_9_51_25261
579,217.0,12_9_51_25295
580,222.0,12_9_51_25345
581,211.0,12_9_51_25378
582,223.0,12_9_51_25428
583,216.0,12_9_51_25461
584,215.0,12_9_51_25511
585,216.0,12_9_51_25544
586,216.0,12_9_51_25578
587,212.0,12_9_51_25627
588,216.0,12_9_51_25661
589,223.0,12_9_51_25712
590,210.0,12_9_51_25744
591,221.0,12_9_51_25795
592,209.0,12_9_51_25828
593,209.0,12_9_51_25861
594,213.0,12_9_51_25911
595,215.0,12_9_51_25944
596,208.0,12_9_51_25994
597,217.0,12_9_51_26028
598,207.0,12_9_51_26078
599,213.0,12_9_51_26111
600,218.0,12_9_51_26161
601,210.0,12_9_51_26195
602,205.0,12_9_52_26228
603,207.0,12_9_52_26278
604,206.0,12_9_52_26311
605,204.0,12_9_52_26361
606,209.0,12_9_52_26395
607,200.0,12_9_52_26445
608,210.0,12_9_52_26478
609,212.0,12_9_52_26511
610,200.0,12_9_52_26561
611,200.0,12_9_52_26594
612,210.0,12_9_52_26645
613,200.0,12_9_52_26678
614,212.0,12_9_52_26728
615,208.0,12_9_52_26761
616,198.0,12_9_52_26795
617,205.0,12_9_52_26844
618,207.0,12_9_52_26878
619,199.0,12_9_52_26928
620,207.0,12_9_52_26961
621,197.0,12_9_52_27011
622,204.0,12_9_52_27045
623,204.0,12_9_52_27095
624,211.0,12_9_52_27128
625,209.0,12_9_52_27161
626,199.0,12_9_52_27211
627,211.0,12_9_53_27245
628,203.0,12_9_53_27295
629,202.0,12_9_53_27328
630,207.0,12_9_53_27378
631,200.0,12_9_53_27411
632,203.0,12_9_53_27445
633,205.0,12_9_53_27495
634,200.0,12_9_53_27528
635,208.0,12_9_53_27578
636,210.0,12_9_53_27612
637,207.0,12_9_53_27661
638,208.0,12_9_53_27694
639,207.0,12_9_53_27744
640,200.0,12_9_53_27778
641,206.0,12_9_53_27812
642,207.0,12_9_53_27862
643,201.0,12_9_53_27895
644,218.0,12_9_53_27945
645,223.0,12_9_53_27978
646,237.0,12_9_53_28028
647,258.0,12_9_53_28061
648,262.0,12_9_53_28095
649,260.0,12_9_53_28145
650,268.0,12_9_53_28178
651,259.0,12_9_54_28228
652,257.0,12_9_54_28262
653,264.0,12_9_54_28312
654,256.0,12_9_54_28345
655,255.0,12_9_54_28378
656,256.0,12_9_54_28428
657,246.0,12_9_54_28461
658,252.0,12_9_54_28512
659,247.0,12_9_54_28545
660,245.0,12_9_54_28595
661,240.0,12_9_54_28628
662,235.0,12_9_54_28678
663,234.0,12_9_54_28711
664,232.0,12_9_54_28744
665,231.0,12_9_54_28795
666,227.0,12_9_54_28828
667,225.0,12_9_54_28878
668,232.0,12_9_54_28911
669,230.0,12_9_54_28961
670,232.0,12_9_54_28994
671,234.0,12_9_54_29028
672,224.0,12_9_54_29078
673,221.0,12_9_54_29111
674,225.0,12_9_54_29162
675,223.0,12_9_54_29195
676,226.0,12_9_55_29245
677,223.0,12_9_55_29278
678,220.0,12_9_55_29311
679,222.0,12_9_55_29361
680,225.0,12_9_55_29394
681,219.0,12_9_55_29445
682,219.0,12_9_55_29478
683,213.0,12_9_55_29528
684,222.0,12_9_55_29561
685,216.0,12_9_55_29612
686,220.0,12_9_55_29645
687,220.0,12_9_55_29678
688,224.0,12_9_55_29728
689,221.0,12_9_55_29761
690,217.0,12_9_55_29811
691,224.0,12_9_55_29844
692,226.0,12_9_55_29895
693,223.0,12_9_55_29928
694,224.0,12_9_55_29962
695,219.0,12_9_55_30011
696,216.0,12_9_55_30045
697,218.0,12_9_55_30095
698,225.0,12_9_55_30128
699,213.0,12_9_55_30178
700,222.0,12_9_55_30212
701,220.0,12_9_56_30262
702,216.0,12_9_56_30295
703,220.0,12_9_56_30328
704,219.0,12_9_56_30378
705,218.0,12_9_56_30411
706,223.0,12_9_56_30461
707,230.0,12_9_56_30495
708,231.0,12_9_56_30545
709,242.0,12_9_56_30578
710,255.0,12_9_56_30611
711,260.0,12_9_56_30661
712,273.0,12_9_56_30695
713,277.0,12_9_56_30744
714,269.0,12_9_56_30778
715,278.0,12_9_56_30828
716,280.0,12_9_56_30862
717,272.0,12_9_56_30912
718,274.0,12_9_56_30945
719,265.0,12_9_56_30979
720,268.0,12_9_56_31028
721,263.0,12_9_56_31061
722,269.0,12_9_56_31111
723,262.0,12_9_56_31144
724,265.0,12_9_56_31195
725,256.0,12_9_57_31229
726,258.0,12_9_57_31262
727,260.0,12_9_57_31311
728,257.0,12_9_57_31345
729,265.0,12_9_57_31395
730,248.0,12_9_57_31428
731,252.0,12_9_57_31478
732,248.0,12_9_57_31512
733,253.0,12_9_57_31545
734,248.0,12_9_57_31595
735,244.0,12_9_57_31629
736,251.0,12_9_57_31678
737,247.0,12_9_57_31712
738,248.0,12_9_57_31761
739,250.0,12_9_57_31794
740,240.0,12_9_57_31845
741,244.0,12_9_57_31879
742,250.0,12_9_57_31912
743,236.0,12_9_57_31962
744,238.0,12_9_57_31995
745,232.0,12_9_57_32044
746,242.0,12_9_57_32078
747,236.0,12_9_57_32128
748,239.0,12_9_57_32162
749,237.0,12_9_57_32194
750,242.0,12_9_58_32245
751,240.0,12_9_58_32279
752,239.0,12_9_58_32329
753,235.0,12_9_58_32362
754,240.0,12_9_58_32411
755,239.0,12_9_58_32445
756,243.0,12_9_58_32478
757,242.0,12_9_58_32528
758,240.0,12_9_58_32562
759,246.0,12_9_58_32611
760,247.0,12_9_58_32645
761,240.0,12_9_58_32695
762,245.0,12_9_58_32728
763,243.0,12_9_58_32779
764,246.0,12_9_58_32811
765,250.0,12_9_58_32845
766,235.0,12_9_58_32895
767,247.0,12_9_58_32928
768,243.0,12_9_58_32978
769,236.0,12_9_58_33011
770,236.0,12_9_58_33062
771,235.0,12_9_58_33094
772,236.0,12_9_58_33128
773,239.0,12_9_58_33178
774,239.0,12_9_58_33212
775,237.0,12_9_59_33261
776,241.0,12_9_59_33295
777,244.0,12_9_59_33345
778,239.0,12_9_59_33378
779,244.0,12_9_59_33428
780,251.0,12_9_59_33462
781,257.0,12_9_59_33495
782,264.0,12_9_59_33545
783,275.0,12_9_59_33578
784,280.0,12_9_59_33628
785,280.0,12_9_59_33661
786,290.0,12_9_59_33712
787,277.0,12_9_59_33745
788,282.0,12_9_59_33778
789,281.0,12_9_59_33828
790,277.0,12_9_59_33861
791,269.0,12_9_59_33912
792,263.0,12_9_59_33945
793,266.0,12_9_59_33995
794,263.0,12_9_59_34028
795,270.0,12_9_59_34062
796,258.0,12_9_59_34112
797,257.0,12_9_59_34145
798,268.0,12_9_59_34195
799,261.0,12_10_0_34228
800,260.0,12_10_0_34278
801,258.0,12_10_0_34312
802,251.0,12_10_0_34361
803,252.0,12_10_0_34395
804,260.0,12_10_0_34429
805,250.0,12_10_0_34478
806,253.0,12_10_0_34511
807,255.0,12_10_0_34562
808,252.0,12_10_0_34595
809,256.0,12_10_0_34645
810,247.0,12_10_0_34678
811,249.0,12_10_0_34712
812,250.0,12_10_0_34761
813,250.0,12_10_0_34795
814,243.0,12_10_0_34845
815,252.0,12_10_0_34879
816,250.0,12_10_0_34929
817,249.0,12_10_0_34962
818,251.0,12_10_0_35012
819,244.0,12_10_0_35045
820,244.0,12_10_0_35078
821,241.0,12_10_0_35129
822,249.0,12_10_0_35161
823,240.0,12_10_0_35212
824,241.0,12_10_1_35245
825,247.0,12_10_1_35295
826,239.0,12_10_1_35328
827,248.0,12_10_1_35362
828,245.0,12_10_1_35412
829,235.0,12_10_1_35445
830,245.0,12_10_1_35495
831,239.0,12_10_1_35528
832,237.0,12_10_1_35578
833,237.0,12_10_1_35612
834,238.0,12_10_1_35645
835,232.0,12_10_1_35695
836,240.0,12_10_1_35728
837,235.0,12_10_1_35779
838,232.0,12_10_1_35812
839,237.0,12_10_1_35862
840,234.0,12_10_1_35895
841,227.0,12_10_1_35945
842,230.0,12_10_1_35979
843,228.0,12_10_1_36012
844,238.0,12_10_1_36062
845,237.0,12_10_1_36095
846,233.0,12_10_1_36146
847,232.0,12_10_1_36179
848,236.0,12_10_2_36228
849,223.0,12_10_2_36262
850,228.0,12_10_2_36295
851,228.0,12_10_2_36345
852,224.0,12_10_2_36379
853,234.0,12_10_2_36428
854,219.0,12_10_2_36462
855,228.0,12_10_2_36511
856,224.0,12_10_2_36545
857,230.0,12_10_2_36595
858,224.0,12_10_2_36628
859,222.0,12_10_2_36661
860,232.0,12_10_2_36712
861,230.0,12_10_2_36745
862,226.0,12_10_2_36795
863,226.0,12_10_2_36828
864,224.0,12_10_2_36878
865,228.0,12_10_2_36912
866,229.0,12_10_2_36945
867,223.0,12_10_2_36995
868,225.0,12_10_2_37028
869,219.0,12_10_2_37078
870,228.0,12_10_2_37112
871,224.0,12_10_2_37161
872,235.0,12_10_2_37195
873,234.0,12_10_3_37228
874,234.0,12_10_3_37279
875,250.0,12_10_3_37311
876,250.0,12_10_3_37362
877,248.0,12_10_3_37395
878,259.0,12_10_3_37445
879,260.0,12_10_3_37479
880,264.0,12_10_3_37529
881,287.0,12_10_3_37562
882,367.0,12_10_3_37596
883,410.0,12_10_3_37645
884,451.0,12_10_3_37679
885,464.0,12_10_3_37729
886,485.0,12_10_3_37762
887,486.0,12_10_3_37812
888,496.0,12_10_3_37845
889,503.0,12_10_3_37878
890,499.0,12_10_3_37928
891,501.0,12_10_3_37962
892,511.0,12_10_3_38012
893,502.0,12_10_3_38045
894,503.0,12_10_3_38079
895,512.0,12_10_3_38128
896,503.0,12_10_3_38162
897,500.0,12_10_3_38212
898,468.0,12_10_4_38245
899,412.0,12_10_4_38295
900,383.0,12_10_4_38331
901,360.0,12_10_4_38362
902,339.0,12_10_4_38412
903,339.0,12_10_4_38445
904,320.0,12_10_4_38495
905,320.0,12_10_4_38529
906,314.0,12_10_4_38578
907,299.0,12_10_4_38612
908,307.0,12_10_4_38645
909,308.0,12_10_4_38695
910,296.0,12_10_4_38729
911,299.0,12_10_4_38778
912,295.0,12_10_4_38811
913,301.0,12_10_4_38862
914,298.0,12_10_4_38895
915,304.0,12_10_4_38946
916,296.0,12_10_4_38978
917,291.0,12_10_4_39012
918,295.0,12_10_4_39062
919,293.0,12_10_4_39095
920,286.0,12_10_4_39145
921,280.0,12_10_4_39179
922,280.0,12_10_5_39228
923,279.0,12_10_5_39262
924,290.0,12_10_5_39295
925,288.0,12_10_5_39345
926,287.0,12_10_5_39379
927,294.0,12_10_5_39428
928,279.0,12_10_5_39461
929,274.0,12_10_5_39512
930,276.0,12_10_5_39545
931,260.0,12_10_5_39596
932,254.0,12_10_5_39628
933,243.0,12_10_5_39662
934,245.0,12_10_5_39712
935,251.0,12_10_5_39746
936,251.0,12_10_5_39795
937,267.0,12_10_5_39828
938,358.0,12_10_5_39878
939,403.0,12_10_5_39911
940,438.0,12_10_5_39962
941,470.0,12_10_5_39995
942,384.0,12_10_5_40029
943,316.0,12_10_5_40079
944,271.0,12_10_5_40112
945,237.0,12_10_5_40162
946,217.0,12_10_5_40195
947,219.0,12_10_6_40228
948,299.0,12_10_6_40278
949,366.0,12_10_6_40312
950,338.0,12_10_6_40362
951,276.0,12_10_6_40395
952,236.0,12_10_6_40445
953,234.0,12_10_6_40479
954,301.0,12_10_6_40528
955,265.0,12_10_6_40561
956,240.0,12_10_6_40595
957,289.0,12_10_6_40645
958,360.0,12_10_6_40679
959,328.0,12_10_6_40729
960,273.0,12_10_6_40762
961,250.0,12_10_6_40812
962,252.0,12_10_6_40845
963,238.0,12_10_6_40879
964,220.0,12_10_6_40929
965,208.0,12_10_6_40962
966,204.0,12_10_6_41012
967,200.0,12_10_6_41045
968,197.0,12_10_6_41095
969,192.0,12_10_6_41128
970,192.0,12_10_6_41179
971,195.0,12_10_6_41212
972,220.0,12_10_7_41246
973,308.0,12_10_7_41295
974,371.0,12_10_7_41329
975,349.0,12_10_7_41378
976,296.0,12_10_7_41412
977,262.0,12_10_7_41461
978,239.0,12_10_7_41496
979,285.0,12_10_7_41529
980,366.0,12_10_7_41579
981,332.0,12_10_7_41612
982,273.0,12_10_7_41662
983,244.0,12_10_7_41696
984,220.0,12_10_7_41745
985,215.0,12_10_7_41778
986,239.0,12_10_7_41812
987,328.0,12_10_7_41862
988,337.0,12_10_7_41896
989,292.0,12_10_7_41945
990,249.0,12_10_7_41979
991,228.0,12_10_7_42028
992,220.0,12_10_7_42062
993,254.0,12_10_7_42112
994,343.0,12_10_7_42145
995,359.0,12_10_7_42178
996,295.0,12_10_8_42229
997,262.0,12_10_8_42262
998,239.0,12_10_8_42312
999,222.0,12_10_8_42345
1000,216.0,12_10_8_42395
1001,217.0,12_10_8_42428
1002,205.0,12_10_8_42462
1003,212.0,12_10_8_42512
1004,212.0,12_10_8_42545
1005,204.0,12_10_8_42596
1006,204.0,12_10_8_42629
1007,214.0,12_10_8_42679
1008,205.0,12_10_8_42712
1009,314.0,12_10_8_42762
1010,375.0,12_10_8_42795
1011,372.0,12_10_8_42829
1012,319.0,12_10_8_42879
1013,354.0,12_10_8_42912
1014,403.0,12_10_8_42962
1015,413.0,12_10_8_42996
1016,367.0,12_10_8_43045
1017,415.0,12_10_8_43078
1018,452.0,12_10_8_43112
1019,378.0,12_10_8_43162
1020,311.0,12_10_8_43195
1021,281.0,12_10_9_43245
1022,259.0,12_10_9_43278
1023,248.0,12_10_9_43329
1024,233.0,12_10_9_43362
1025,226.0,12_10_9_43396
1026,226.0,12_10_9_43445
1027,222.0,12_10_9_43478
1028,214.0,12_10_9_43528
1029,207.0,12_10_9_43562
1030,216.0,12_10_9_43612
1031,205.0,12_10_9_43646
1032,201.0,12_10_9_43696
1033,206.0,12_10_9_43729
1034,208.0,12_10_9_43762
1035,208.0,12_10_9_43812
1036,207.0,12_10_9_43845
1037,214.0,12_10_9_43895
1038,210.0,12_10_9_43928
1039,218.0,12_10_9_43979
1040,215.0,12_10_9_44012
1041,212.0,12_10_9_44046
1042,219.0,12_10_9_44096
1043,218.0,12_10_9_44129
1044,221.0,12_10_9_44179
1045,215.0,12_10_9_44212
1046,208.0,12_10_10_44262
1047,213.0,12_10_10_44295
1048,209.0,12_10_10_44346
1049,208.0,12_10_10_44379
1050,210.0,12_10_10_44412
1051,207.0,12_10_10_44462
1052,263.0,12_10_10_44496
1053,345.0,12_10_10_44545
1054,395.0,12_10_10_44579
1055,342.0,12_10_10_44628
1056,374.0,12_10_10_44662
1057,428.0,12_10_10_44696
1058,417.0,12_10_10_44745
1059,351.0,12_10_10_44779
1060,371.0,12_10_10_44828
1061,412.0,12_10_10_44862
1062,424.0,12_10_10_44912
1063,350.0,12_10_10_44946
1064,307.0,12_10_10_44996
1065,360.0,12_10_10_45029
1066,411.0,12_10_10_45062
1067,391.0,12_10_10_45112
1068,338.0,12_10_10_45145
1069,296.0,12_10_10_45195
1070,320.0,12_10_11_45229
1071,393.0,12_10_11_45262
1072,402.0,12_10_11_45312
1073,336.0,12_10_11_45346
1074,293.0,12_10_11_45396
1075,351.0,12_10_11_45429
1076,407.0,12_10_11_45479
1077,363.0,12_10_11_45512
1078,311.0,12_10_11_45562
1079,353.0,12_10_11_45595
1080,413.0,12_10_11_45629
1081,394.0,12_10_11_45679
1082,322.0,12_10_11_45712
1083,280.0,12_10_11_45762
1084,246.0,12_10_11_45795
1085,228.0,12_10_11_45846
1086,223.0,12_10_11_45879
1087,223.0,12_10_11_45928
1088,220.0,12_10_11_45963
1089,205.0,12_10_11_45996
1090,208.0,12_10_11_46046
1091,199.0,12_10_11_46079
1092,203.0,12_10_11_46129
1093,192.0,12_10_11_46162
1094,191.0,12_10_11_46212
1095,194.0,12_10_12_46245
1096,192.0,12_10_12_46279
1097,198.0,12_10_12_46329
1098,191.0,12_10_12_46362
1099,194.0,12_10_12_46412
1100,192.0,12_10_12_46446
1101,195.0,12_10_12_46496
1102,208.0,12_10_12_46529
1103,209.0,12_10_12_46563
1104,248.0,12_10_12_46612
1105,338.0,12_10_12_46645
1106,396.0,12_10_12_46696
1107,433.0,12_10_12_46729
1108,459.0,12_10_12_46779
1109,480.0,12_10_12_46812
1110,485.0,12_10_12_46862
1111,491.0,12_10_12_46895
1112,504.0,12_10_12_46928
1113,500.0,12_10_12_46979
1114,503.0,12_10_12_47012
1115,507.0,12_10_12_47062
1116,504.0,12_10_12_47096
1117,503.0,12_10_12_47146
1118,505.0,12_10_12_47179
1119,505.0,12_10_12_47212
1120,504.0,12_10_13_47262
1121,512.0,12_10_13_47295
1122,504.0,12_10_13_47346
1123,504.0,12_10_13_47379
1124,504.0,12_10_13_47428
1125,505.0,12_10_13_47463
1126,508.0,12_10_13_47496
1127,508.0,12_10_13_47546
1128,503.0,12_10_13_47578
1129,507.0,12_10_13_47629
1130,505.0,12_10_13_47662
1131,504.0,12_10_13_47713
1132,511.0,12_10_13_47746
1133,505.0,12_10_13_47795
1134,512.0,12_10_13_47829
1135,511.0,12_10_13_47863
1136,504.0,12_10_13_47912
1137,508.0,12_10_13_47945
1138,512.0,12_10_13_47996
1139,504.0,12_10_13_48029
1140,511.0,12_10_13_48079
1141,504.0,12_10_13_48112
1142,504.0,12_10_13_48146
1143,511.0,12_10_13_48196
1144,510.0,12_10_14_48229
1145,507.0,12_10_14_48279
1146,504.0,12_10_14_48312
1147,504.0,12_10_14_48362
1148,504.0,12_10_14_48395
1149,513.0,12_10_14_48445
1150,502.0,12_10_14_48479
1151,504.0,12_10_14_48513
1152,505.0,12_10_14_48562
