position,GSR_Reading,Time_Stamp
0,20802.0,17_1_22_434
1,204.0,17_1_22_450
2,192.0,17_1_22_467
3,205.0,17_1_22_483
4,193.0,17_1_22_500
5,209.0,17_1_22_516
6,206.0,17_1_22_533
7,210.0,17_1_22_550
8,228.0,17_1_22_567
9,213.0,17_1_22_583
10,261.0,17_1_22_600
11,214.0,17_1_22_616
12,302.0,17_1_22_633
13,216.0,17_1_22_650
14,347.0,17_1_22_666
15,NaN,17_1_22_686
16,215.0,17_1_22_700
17,198.0,17_1_22_716
18,203.0,17_1_22_733
19,200.0,17_1_22_750
20,208.0,17_1_22_766
21,201.0,17_1_22_783
22,202.0,17_1_22_800
23,204.0,17_1_22_817
24,192.0,17_1_22_833
25,205.0,17_1_22_849
26,193.0,17_1_22_867
27,209.0,17_1_22_883
28,206.0,17_1_22_900
29,210.0,17_1_22_917
30,228.0,17_1_22_933
31,213.0,17_1_22_949
32,261.0,17_1_22_967
33,214.0,17_1_22_983
34,302.0,17_1_22_1000
35,216.0,17_1_22_1016
36,347.0,17_1_22_1034
37,NaN,17_1_22_1050
38,215.0,17_1_22_1066
39,198.0,17_1_22_1083
40,203.0,17_1_23_1100
41,200.0,17_1_23_1117
42,208.0,17_1_23_1133
43,201.0,17_1_23_1149
44,202.0,17_1_23_1166
45,204.0,17_1_23_1183
46,192.0,17_1_23_1200
47,205.0,17_1_23_1217
48,193.0,17_1_23_1233
49,209.0,17_1_23_1250
50,206.0,17_1_23_1266
51,210.0,17_1_23_1283
52,228.0,17_1_23_1300
53,213.0,17_1_23_1316
54,261.0,17_1_23_1333
55,214.0,17_1_23_1350
56,302.0,17_1_23_1367
57,216.0,17_1_23_1383
58,347.0,17_1_23_1400
59,208.0,17_1_23_1767
60,493.0,17_1_23_1783
61,206.0,17_1_23_1800
62,441.0,17_1_23_1817
63,204.0,17_1_23_1850
64,408.0,17_1_23_1866
65,203.0,17_1_23_1883
66,382.0,17_1_23_1900
67,201.0,17_1_23_1933
68,350.0,17_1_23_1950
69,200.0,17_1_23_1967
70,313.0,17_1_23_1983
71,199.0,17_1_23_2016
72,277.0,17_1_23_2033
73,199.0,17_1_23_2050
74,256.0,17_1_23_2066
75,199.0,17_1_24_2100
76,221.0,17_1_24_2116
77,199.0,17_1_24_2133
78,207.0,17_1_24_2150
79,200.0,17_1_24_2167
80,251.0,17_1_24_2183
81,200.0,17_1_24_2217
82,205.0,17_1_24_2233
83,202.0,17_1_24_2250
84,209.0,17_1_24_2267
85,203.0,17_1_24_2300
86,197.0,17_1_24_2317
87,206.0,17_1_24_2333
88,186.0,17_1_24_2350
89,208.0,17_1_24_2383
90,197.0,17_1_24_2399
91,211.0,17_1_24_2416
92,212.0,17_1_24_2434
93,213.0,17_1_24_2466
94,267.0,17_1_24_2484
95,215.0,17_1_24_2500
96,276.0,17_1_24_2517
97,216.0,17_1_24_2533
98,318.0,17_1_24_2550
99,217.0,17_1_24_2583
100,364.0,17_1_24_2600
101,217.0,17_1_24_2617
102,405.0,17_1_24_2633
103,218.0,17_1_24_2667
104,455.0,17_1_24_2683
105,217.0,17_1_24_2700
106,485.0,17_1_24_2716
107,216.0,17_1_24_2733
108,580.0,17_1_24_2750
109,214.0,17_1_24_2783
110,505.0,17_1_24_2799
111,213.0,17_1_24_2817
112,504.0,17_1_24_2833
113,212.0,17_1_24_2866
114,507.0,17_1_24_2883
115,210.0,17_1_24_2900
116,505.0,17_1_24_2917
117,209.0,17_1_24_2950
118,475.0,17_1_24_2967
119,207.0,17_1_24_2983
120,438.0,17_1_24_3000
121,206.0,17_1_24_3033
122,217.0,17_1_24_3050
123,204.0,17_1_24_3067
124,379.0,17_1_24_3083
125,202.0,17_1_25_3100
126,348.0,17_1_25_3117
127,201.0,17_1_25_3150
128,311.0,17_1_25_3166
129,200.0,17_1_25_3183
130,275.0,17_1_25_3199
131,200.0,17_1_25_3233
132,245.0,17_1_25_3250
133,200.0,17_1_25_3267
134,220.0,17_1_25_3283
135,200.0,17_1_25_3316
136,0.0,17_1_25_3333
137,201.0,17_1_25_3350
138,203.0,17_1_25_3366
139,202.0,17_1_25_3400
140,203.0,17_1_25_3416
141,203.0,17_1_25_3433
142,209.0,17_1_25_3449
143,205.0,17_1_25_3466
144,195.0,17_1_25_3483
145,207.0,17_1_25_3516
146,191.0,17_1_25_3533
147,209.0,17_1_25_3550
148,195.0,17_1_25_3566
149,212.0,17_1_25_3600
150,327.0,17_1_25_3617
151,214.0,17_1_25_3633
152,235.0,17_1_25_3650
153,216.0,17_1_25_3683
154,273.0,17_1_25_3700
155,217.0,17_1_25_3716
156,315.0,17_1_25_3733
157,218.0,17_1_25_3767
158,353.0,17_1_25_3783
159,218.0,17_1_25_3800
160,405.0,17_1_25_3817
161,218.0,17_1_25_3833
162,451.0,17_1_25_3849
163,217.0,17_1_25_3883
164,578.0,17_1_25_3900
165,217.0,17_1_25_3917
166,500.0,17_1_25_3933
167,216.0,17_1_25_3966
168,506.0,17_1_25_3983
169,214.0,17_1_25_4000
170,506.0,17_1_25_4017
171,213.0,17_1_25_4050
172,506.0,17_1_25_4066
173,211.0,17_1_25_4083
174,510.0,17_1_26_4100
175,210.0,17_1_26_4116
176,480.0,17_1_26_4133
177,209.0,17_1_26_4166
178,521.0,17_1_26_4183
179,207.0,17_1_26_4200
180,409.0,17_1_26_4217
181,206.0,17_1_26_4250
182,381.0,17_1_26_4267
183,204.0,17_1_26_4283
184,351.0,17_1_26_4299
185,203.0,17_1_26_4333
186,313.0,17_1_26_4350
187,201.0,17_1_26_4367
188,278.0,17_1_26_4383
189,201.0,17_1_26_4417
190,246.0,17_1_26_4434
191,201.0,17_1_26_4450
192,186.0,17_1_26_4467
193,201.0,17_1_26_4483
194,206.0,17_1_26_4500
195,202.0,17_1_26_4534
196,202.0,17_1_26_4550
197,203.0,17_1_26_4567
198,202.0,17_1_26_4583
199,205.0,17_1_26_4616
200,208.0,17_1_26_4634
201,206.0,17_1_26_4650
202,194.0,17_1_26_4666
203,208.0,17_1_26_4700
204,189.0,17_1_26_4717
205,211.0,17_1_26_4733
206,160.0,17_1_26_4749
207,214.0,17_1_26_4766
208,210.0,17_1_26_4783
209,216.0,17_1_26_4817
210,235.0,17_1_26_4833
211,218.0,17_1_26_4850
212,275.0,17_1_26_4867
213,219.0,17_1_26_4899
214,318.0,17_1_26_4916
215,220.0,17_1_26_4933
216,363.0,17_1_26_4950
217,220.0,17_1_26_4983
218,409.0,17_1_26_5000
219,220.0,17_1_26_5017
220,493.0,17_1_26_5033
221,219.0,17_1_26_5067
222,486.0,17_1_26_5083
223,218.0,17_1_27_5100
224,501.0,17_1_27_5116
225,217.0,17_1_27_5133
226,506.0,17_1_27_5149
227,215.0,17_1_27_5184
228,503.0,17_1_27_5199
229,214.0,17_1_27_5216
230,508.0,17_1_27_5233
231,212.0,17_1_27_5267
232,508.0,17_1_27_5283
233,210.0,17_1_27_5300
234,491.0,17_1_27_5317
235,209.0,17_1_27_5350
236,439.0,17_1_27_5367
237,207.0,17_1_27_5383
238,406.0,17_1_27_5400
239,205.0,17_1_27_5434
240,378.0,17_1_27_5449
241,204.0,17_1_27_5467
242,348.0,17_1_27_5499
243,203.0,17_1_27_5509
244,311.0,17_1_27_5524
245,202.0,17_1_27_5541
246,275.0,17_1_27_5557
247,201.0,17_1_27_5591
248,261.0,17_1_27_5608
249,201.0,17_1_27_5624
250,220.0,17_1_27_5641
251,202.0,17_1_27_5674
252,206.0,17_1_27_5691
253,203.0,17_1_27_5708
254,201.0,17_1_27_5725
255,204.0,17_1_27_5741
256,203.0,17_1_27_5758
257,204.0,17_1_27_5791
258,207.0,17_1_27_5807
259,207.0,17_1_27_5824
260,194.0,17_1_27_5841
261,209.0,17_1_27_5874
262,181.0,17_1_27_5891
263,211.0,17_1_27_5907
264,196.0,17_1_27_5924
265,214.0,17_1_27_5958
266,212.0,17_1_27_5974
267,216.0,17_1_27_5991
268,238.0,17_1_27_6008
269,218.0,17_1_27_6041
270,279.0,17_1_27_6058
271,220.0,17_1_27_6075
272,322.0,17_1_28_6090
273,221.0,17_1_28_6108
274,367.0,17_1_28_6124
275,221.0,17_1_28_6158
276,0.0,17_1_28_6175
277,221.0,17_1_28_6190
278,454.0,17_1_28_6207
279,220.0,17_1_28_6241
280,486.0,17_1_28_6257
281,219.0,17_1_28_6274
282,503.0,17_1_28_6291
283,219.0,17_1_28_6324
284,505.0,17_1_28_6341
285,216.0,17_1_28_6358
286,506.0,17_1_28_6374
287,215.0,17_1_28_6408
288,510.0,17_1_28_6424
289,213.0,17_1_28_6441
290,531.0,17_1_28_6458
291,212.0,17_1_28_6475
292,477.0,17_1_28_6491
293,211.0,17_1_28_6524
294,442.0,17_1_28_6541
295,209.0,17_1_28_6558
296,408.0,17_1_28_6574
297,207.0,17_1_28_6607
298,381.0,17_1_28_6624
299,206.0,17_1_28_6641
300,351.0,17_1_28_6657
301,204.0,17_1_28_6674
302,313.0,17_1_28_6691
303,203.0,17_1_28_6724
304,278.0,17_1_28_6741
305,203.0,17_1_28_6758
306,246.0,17_1_28_6774
307,203.0,17_1_28_6808
308,221.0,17_1_28_6825
309,203.0,17_1_28_6841
310,206.0,17_1_28_6858
311,204.0,17_1_28_6891
312,202.0,17_1_28_6907
313,205.0,17_1_28_6924
314,201.0,17_1_28_6941
315,207.0,17_1_28_6974
316,207.0,17_1_28_6991
317,208.0,17_1_28_7007
318,191.0,17_1_28_7024
319,210.0,17_1_28_7057
320,188.0,17_1_28_7074
321,213.0,17_1_29_7091
322,193.0,17_1_29_7108
323,216.0,17_1_29_7125
324,208.0,17_1_29_7140
325,218.0,17_1_29_7174
326,233.0,17_1_29_7191
327,220.0,17_1_29_7208
328,273.0,17_1_29_7224
329,221.0,17_1_29_7257
330,317.0,17_1_29_7274
331,222.0,17_1_29_7291
332,369.0,17_1_29_7308
333,222.0,17_1_29_7341
334,407.0,17_1_29_7358
335,223.0,17_1_29_7374
336,456.0,17_1_29_7391
337,222.0,17_1_29_7408
338,487.0,17_1_29_7424
339,221.0,17_1_29_7458
340,504.0,17_1_29_7474
341,220.0,17_1_29_7491
342,509.0,17_1_29_7508
343,219.0,17_1_29_7541
344,507.0,17_1_29_7557
345,217.0,17_1_29_7575
346,518.0,17_1_29_7590
347,215.0,17_1_29_7625
348,513.0,17_1_29_7641
349,214.0,17_1_29_7657
350,479.0,17_1_29_7674
351,212.0,17_1_29_7691
352,442.0,17_1_29_7708
353,210.0,17_1_29_7741
354,410.0,17_1_29_7758
355,209.0,17_1_29_7775
356,382.0,17_1_29_7791
357,207.0,17_1_29_7824
358,353.0,17_1_29_7841
359,206.0,17_1_29_7858
360,330.0,17_1_29_7874
361,205.0,17_1_29_7907
362,279.0,17_1_29_7925
363,204.0,17_1_29_7941
364,247.0,17_1_29_7958
365,204.0,17_1_29_7991
366,222.0,17_1_29_8008
367,205.0,17_1_29_8025
368,206.0,17_1_29_8041
369,206.0,17_1_29_8075
370,201.0,17_1_30_8091
371,206.0,17_1_30_8108
372,202.0,17_1_30_8124
373,207.0,17_1_30_8142
374,208.0,17_1_30_8158
375,209.0,17_1_30_8191
376,195.0,17_1_30_8208
377,211.0,17_1_30_8225
378,188.0,17_1_30_8241
379,214.0,17_1_30_8275
380,205.0,17_1_30_8291
381,216.0,17_1_30_8308
382,204.0,17_1_30_8325
383,219.0,17_1_30_8358
384,224.0,17_1_30_8374
385,221.0,17_1_30_8391
386,263.0,17_1_30_8408
387,222.0,17_1_30_8424
388,301.0,17_1_30_8441
389,224.0,17_1_30_8474
390,350.0,17_1_30_8491
391,224.0,17_1_30_8507
392,396.0,17_1_30_8524
393,224.0,17_1_30_8558
394,488.0,17_1_30_8575
395,223.0,17_1_30_8591
396,479.0,17_1_30_8607
397,222.0,17_1_30_8624
398,498.0,17_1_30_8641
399,222.0,17_1_30_8674
400,506.0,17_1_30_8691
401,220.0,17_1_30_8707
402,503.0,17_1_30_8724
403,218.0,17_1_30_8757
404,506.0,17_1_30_8774
405,217.0,17_1_30_8791
406,516.0,17_1_30_8807
407,215.0,17_1_30_8841
408,335.0,17_1_30_8858
409,213.0,17_1_30_8875
410,455.0,17_1_30_8891
411,212.0,17_1_30_8924
412,421.0,17_1_30_8941
413,210.0,17_1_30_8957
414,392.0,17_1_30_8974
415,209.0,17_1_30_9008
416,359.0,17_1_30_9025
417,207.0,17_1_30_9041
418,330.0,17_1_30_9058
419,206.0,17_1_30_9075
420,292.0,17_1_31_9091
421,206.0,17_1_31_9124
422,210.0,17_1_31_9141
423,205.0,17_1_31_9158
424,232.0,17_1_31_9175
425,205.0,17_1_31_9208
426,213.0,17_1_31_9224
427,205.0,17_1_31_9241
428,202.0,17_1_31_9257
429,207.0,17_1_31_9291
430,202.0,17_1_31_9308
431,208.0,17_1_31_9324
432,203.0,17_1_31_9341
433,209.0,17_1_31_9358
434,201.0,17_1_31_9374
435,211.0,17_1_31_9408
436,210.0,17_1_31_9425
437,214.0,17_1_31_9441
438,186.0,17_1_31_9457
439,216.0,17_1_31_9491
440,197.0,17_1_31_9508
441,219.0,17_1_31_9524
442,213.0,17_1_31_9541
443,221.0,17_1_31_9574
444,236.0,17_1_31_9591
445,223.0,17_1_31_9608
446,285.0,17_1_31_9624
447,224.0,17_1_31_9641
448,328.0,17_1_31_9658
449,225.0,17_1_31_9692
450,322.0,17_1_31_9708
451,225.0,17_1_31_9725
452,417.0,17_1_31_9742
453,225.0,17_1_31_9775
454,460.0,17_1_31_9791
455,224.0,17_1_31_9808
456,489.0,17_1_31_9825
457,223.0,17_1_31_9858
458,502.0,17_1_31_9875
459,222.0,17_1_31_9891
460,507.0,17_1_31_9907
461,220.0,17_1_31_9941
462,504.0,17_1_31_9957
463,219.0,17_1_31_9974
464,541.0,17_1_31_9991
465,217.0,17_1_31_10025
466,511.0,17_1_31_10041
467,215.0,17_1_31_10058
468,482.0,17_1_31_10075
469,214.0,17_1_32_10091
470,445.0,17_1_32_10107
471,212.0,17_1_32_10142
472,412.0,17_1_32_10158
473,210.0,17_1_32_10175
474,385.0,17_1_32_10191
475,208.0,17_1_32_10225
476,357.0,17_1_32_10242
477,207.0,17_1_32_10258
478,339.0,17_1_32_10275
479,206.0,17_1_32_10307
480,284.0,17_1_32_10324
481,206.0,17_1_32_10341
482,254.0,17_1_32_10357
483,205.0,17_1_32_10374
484,227.0,17_1_32_10391
485,206.0,17_1_32_10424
486,210.0,17_1_32_10441
487,206.0,17_1_32_10458
488,202.0,17_1_32_10474
489,207.0,17_1_32_10502
490,202.0,17_1_32_10519
491,208.0,17_1_32_10552
492,123.0,17_1_32_10568
493,209.0,17_1_32_10586
494,200.0,17_1_32_10601
495,212.0,17_1_32_10619
496,190.0,17_1_32_10636
497,214.0,17_1_32_10668
498,190.0,17_1_32_10685
499,217.0,17_1_32_10702
500,200.0,17_1_32_10718
501,219.0,17_1_32_10752
502,219.0,17_1_32_10768
503,221.0,17_1_32_10785
504,249.0,17_1_32_10802
505,223.0,17_1_32_10836
506,277.0,17_1_32_10851
507,224.0,17_1_32_10869
508,331.0,17_1_32_10885
509,224.0,17_1_32_10902
510,376.0,17_1_32_10919
511,224.0,17_1_32_10952
512,421.0,17_1_32_10969
513,223.0,17_1_32_10985
514,463.0,17_1_32_11002
515,223.0,17_1_32_11035
516,488.0,17_1_32_11052
517,221.0,17_1_32_11068
518,501.0,17_1_33_11085
519,221.0,17_1_33_11102
520,515.0,17_1_33_11118
521,219.0,17_1_33_11152
522,501.0,17_1_33_11168
523,217.0,17_1_33_11185
524,508.0,17_1_33_11202
525,215.0,17_1_33_11235
526,507.0,17_1_33_11252
527,214.0,17_1_33_11268
528,476.0,17_1_33_11285
529,211.0,17_1_33_11318
530,440.0,17_1_33_11335
531,209.0,17_1_33_11352
532,408.0,17_1_33_11369
533,208.0,17_1_33_11402
534,386.0,17_1_33_11418
535,206.0,17_1_33_11435
536,353.0,17_1_33_11452
537,204.0,17_1_33_11485
538,316.0,17_1_33_11502
539,203.0,17_1_33_11519
540,281.0,17_1_33_11536
541,202.0,17_1_33_11569
542,252.0,17_1_33_11585
543,202.0,17_1_33_11602
544,226.0,17_1_33_11619
545,201.0,17_1_33_11636
546,211.0,17_1_33_11652
547,202.0,17_1_33_11685
548,203.0,17_1_33_11702
549,202.0,17_1_33_11719
550,204.0,17_1_33_11735
551,203.0,17_1_33_11768
552,210.0,17_1_33_11786
553,203.0,17_1_33_11802
554,203.0,17_1_33_11819
555,205.0,17_1_33_11852
556,196.0,17_1_33_11868
557,207.0,17_1_33_11885
558,197.0,17_1_33_11902
559,209.0,17_1_33_11919
560,210.0,17_1_33_11935
561,211.0,17_1_33_11968
562,238.0,17_1_33_11985
563,212.0,17_1_33_12002
564,259.0,17_1_33_12018
565,214.0,17_1_33_12052
566,298.0,17_1_33_12069
567,214.0,17_1_34_12087
568,337.0,17_1_34_12104
569,214.0,17_1_34_12120
570,381.0,17_1_34_12137
571,214.0,17_1_34_12170
572,429.0,17_1_34_12187
573,213.0,17_1_34_12204
574,465.0,17_1_34_12220
575,212.0,17_1_34_12254
576,490.0,17_1_34_12271
577,211.0,17_1_34_12287
578,496.0,17_1_34_12303
579,209.0,17_1_34_12337
580,497.0,17_1_34_12354
581,207.0,17_1_34_12370
582,492.0,17_1_34_12387
583,206.0,17_1_34_12421
584,496.0,17_1_34_12437
585,204.0,17_1_34_12453
586,493.0,17_1_34_12471
587,201.0,17_1_34_12487
588,461.0,17_1_34_12503
589,199.0,17_1_34_12537
590,437.0,17_1_34_12554
591,197.0,17_1_34_12570
592,396.0,17_1_34_12587
593,195.0,17_1_34_12621
594,370.0,17_1_34_12637
595,193.0,17_1_34_12653
596,343.0,17_1_34_12670
597,192.0,17_1_34_12687
598,309.0,17_1_34_12704
599,191.0,17_1_34_12737
600,275.0,17_1_34_12753
601,190.0,17_1_34_12770
602,247.0,17_1_34_12787
603,190.0,17_1_34_12821
604,226.0,17_1_34_12837
605,190.0,17_1_34_12853
606,211.0,17_1_34_12870
607,190.0,17_1_34_12903
608,206.0,17_1_34_12920
609,190.0,17_1_34_12937
610,207.0,17_1_34_12954
611,191.0,17_1_34_12987
612,214.0,17_1_34_13003
613,192.0,17_1_34_13020
614,207.0,17_1_34_13037
615,194.0,17_1_34_13054
616,200.0,17_1_34_13071
617,195.0,17_1_35_13104
618,194.0,17_1_35_13121
619,198.0,17_1_35_13137
620,217.0,17_1_35_13153
621,200.0,17_1_35_13187
622,240.0,17_1_35_13203
623,201.0,17_1_35_13220
624,271.0,17_1_35_13237
625,203.0,17_1_35_13271
626,308.0,17_1_35_13287
627,204.0,17_1_35_13304
628,348.0,17_1_35_13320
629,204.0,17_1_35_13354
630,394.0,17_1_35_13370
631,204.0,17_1_35_13387
632,470.0,17_1_35_13403
633,204.0,17_1_35_13437
634,466.0,17_1_35_13453
635,205.0,17_1_35_13471
636,486.0,17_1_35_13487
637,204.0,17_1_35_13504
638,495.0,17_1_35_13521
639,202.0,17_1_35_13555
640,495.0,17_1_35_13570
641,201.0,17_1_35_13587
642,491.0,17_1_35_13603
643,200.0,17_1_35_13637
644,492.0,17_1_35_13653
645,198.0,17_1_35_13670
646,489.0,17_1_35_13687
647,197.0,17_1_35_13704
648,464.0,17_1_35_13721
649,195.0,17_1_35_13754
650,431.0,17_1_35_13770
651,194.0,17_1_35_13787
652,376.0,17_1_35_13804
653,193.0,17_1_35_13837
654,374.0,17_1_35_13854
655,192.0,17_1_35_13870
656,349.0,17_1_35_13887
657,190.0,17_1_35_13920
658,315.0,17_1_35_13937
659,189.0,17_1_35_13953
660,296.0,17_1_35_13970
661,189.0,17_1_35_14004
662,252.0,17_1_35_14020
663,189.0,17_1_35_14037
664,229.0,17_1_35_14054
665,189.0,17_1_35_14070
666,213.0,17_1_36_14087
667,190.0,17_1_36_14121
668,207.0,17_1_36_14137
669,191.0,17_1_36_14154
670,206.0,17_1_36_14171
671,192.0,17_1_36_14204
672,210.0,17_1_36_14220
673,193.0,17_1_36_14237
674,203.0,17_1_36_14253
675,195.0,17_1_36_14287
676,199.0,17_1_36_14304
677,197.0,17_1_36_14320
678,197.0,17_1_36_14337
679,199.0,17_1_36_14354
680,199.0,17_1_36_14370
681,202.0,17_1_36_14404
682,231.0,17_1_36_14420
683,204.0,17_1_36_14437
684,256.0,17_1_36_14453
685,205.0,17_1_36_14487
686,292.0,17_1_36_14504
687,207.0,17_1_36_14520
688,324.0,17_1_36_14537
689,208.0,17_1_36_14570
690,373.0,17_1_36_14587
691,208.0,17_1_36_14604
692,417.0,17_1_36_14620
693,208.0,17_1_36_14637
694,490.0,17_1_36_14654
695,208.0,17_1_36_14687
696,481.0,17_1_36_14703
697,207.0,17_1_36_14720
698,494.0,17_1_36_14737
699,206.0,17_1_36_14770
700,497.0,17_1_36_14787
701,205.0,17_1_36_14803
702,493.0,17_1_36_14820
703,203.0,17_1_36_14854
704,493.0,17_1_36_14870
705,202.0,17_1_36_14887
706,503.0,17_1_36_14904
707,201.0,17_1_36_14937
708,427.0,17_1_36_14954
709,199.0,17_1_36_14971
710,445.0,17_1_36_14987
711,198.0,17_1_36_15020
712,414.0,17_1_36_15037
713,196.0,17_1_36_15054
714,386.0,17_1_36_15070
715,195.0,17_1_37_15087
716,362.0,17_1_37_15104
717,194.0,17_1_37_15137
718,328.0,17_1_37_15154
719,193.0,17_1_37_15170
720,294.0,17_1_37_15187
721,192.0,17_1_37_15220
722,277.0,17_1_37_15237
723,192.0,17_1_37_15254
724,237.0,17_1_37_15270
725,193.0,17_1_37_15303
726,217.0,17_1_37_15320
727,193.0,17_1_37_15337
728,207.0,17_1_37_15354
729,194.0,17_1_37_15387
730,209.0,17_1_37_15404
731,194.0,17_1_37_15420
732,208.0,17_1_37_15437
733,196.0,17_1_37_15454
734,211.0,17_1_37_15470
735,197.0,17_1_37_15504
736,0.0,17_1_37_15520
737,199.0,17_1_37_15537
738,196.0,17_1_37_15554
739,202.0,17_1_37_15570
740,201.0,17_1_37_15587
741,204.0,17_1_37_15620
742,217.0,17_1_37_15637
743,207.0,17_1_37_15654
744,238.0,17_1_37_15671
745,208.0,17_1_37_15704
746,271.0,17_1_37_15720
747,210.0,17_1_37_15737
748,308.0,17_1_37_15754
749,211.0,17_1_37_15787
750,494.0,17_1_37_15804
751,211.0,17_1_37_15820
752,392.0,17_1_37_15837
753,212.0,17_1_37_15871
754,437.0,17_1_37_15887
755,211.0,17_1_37_15904
756,470.0,17_1_37_15921
757,210.0,17_1_37_15954
758,490.0,17_1_37_15971
759,209.0,17_1_37_15988
760,498.0,17_1_37_16003
761,208.0,17_1_37_16037
762,500.0,17_1_37_16053
763,206.0,17_1_37_16082
764,526.0,17_1_38_16114
765,206.0,17_1_38_16131
766,503.0,17_1_38_16148
767,204.0,17_1_38_16164
768,496.0,17_1_38_16181
769,202.0,17_1_38_16197
770,463.0,17_1_38_16214
771,201.0,17_1_38_16231
772,428.0,17_1_38_16247
773,199.0,17_1_38_16264
774,399.0,17_1_38_16281
775,198.0,17_1_38_16314
776,375.0,17_1_38_16330
777,197.0,17_1_38_16347
778,366.0,17_1_38_16364
779,195.0,17_1_38_16397
780,309.0,17_1_38_16414
781,194.0,17_1_38_16431
782,277.0,17_1_38_16447
783,194.0,17_1_38_16481
784,248.0,17_1_38_16498
785,194.0,17_1_38_16514
786,224.0,17_1_38_16531
787,195.0,17_1_38_16547
788,210.0,17_1_38_16564
789,195.0,17_1_38_16598
790,205.0,17_1_38_16614
791,196.0,17_1_38_16631
792,183.0,17_1_38_16648
793,197.0,17_1_38_16681
794,211.0,17_1_38_16697
795,199.0,17_1_38_16715
796,202.0,17_1_38_16731
797,201.0,17_1_38_16764
798,195.0,17_1_38_16781
799,203.0,17_1_38_16797
800,196.0,17_1_38_16814
801,206.0,17_1_38_16848
802,210.0,17_1_38_16864
803,208.0,17_1_38_16881
804,230.0,17_1_38_16897
805,210.0,17_1_38_16931
806,238.0,17_1_38_16948
807,211.0,17_1_38_16965
808,297.0,17_1_38_16981
809,212.0,17_1_38_16997
810,337.0,17_1_38_17014
811,213.0,17_1_38_17047
812,380.0,17_1_38_17064
813,213.0,17_1_38_17081
814,420.0,17_1_39_17097
815,213.0,17_1_39_17131
816,464.0,17_1_39_17147
817,212.0,17_1_39_17164
818,487.0,17_1_39_17181
819,211.0,17_1_39_17198
820,471.0,17_1_39_17214
821,210.0,17_1_39_17248
822,501.0,17_1_39_17264
823,209.0,17_1_39_17281
824,498.0,17_1_39_17297
825,208.0,17_1_39_17331
826,503.0,17_1_39_17348
827,206.0,17_1_39_17364
828,503.0,17_1_39_17381
829,205.0,17_1_39_17415
830,474.0,17_1_39_17431
831,204.0,17_1_39_17448
832,439.0,17_1_39_17464
833,202.0,17_1_39_17497
834,440.0,17_1_39_17515
835,200.0,17_1_39_17530
836,381.0,17_1_39_17547
837,199.0,17_1_39_17564
838,356.0,17_1_39_17581
839,198.0,17_1_39_17614
840,320.0,17_1_39_17631
841,197.0,17_1_39_17648
842,286.0,17_1_39_17664
843,196.0,17_1_39_17698
844,256.0,17_1_39_17714
845,196.0,17_1_39_17731
846,231.0,17_1_39_17747
847,196.0,17_1_39_17781
848,191.0,17_1_39_17798
849,196.0,17_1_39_17814
850,205.0,17_1_39_17831
851,198.0,17_1_39_17865
852,204.0,17_1_39_17881
853,199.0,17_1_39_17898
854,207.0,17_1_39_17914
855,200.0,17_1_39_17931
856,205.0,17_1_39_17947
857,202.0,17_1_39_17981
858,195.0,17_1_39_17998
859,204.0,17_1_39_18014
860,193.0,17_1_39_18031
861,207.0,17_1_39_18064
862,46.0,17_1_39_18081
863,208.0,17_1_40_18098
864,220.0,17_1_40_18114
865,211.0,17_1_40_18131
866,245.0,17_1_40_18148
867,213.0,17_1_40_18181
868,281.0,17_1_40_18198
869,214.0,17_1_40_18214
870,320.0,17_1_40_18231
871,215.0,17_1_40_18264
872,364.0,17_1_40_18281
873,215.0,17_1_40_18297
874,407.0,17_1_40_18314
875,215.0,17_1_40_18347
876,376.0,17_1_40_18364
877,215.0,17_1_40_18381
878,481.0,17_1_40_18397
879,214.0,17_1_40_18431
880,497.0,17_1_40_18447
881,212.0,17_1_40_18464
882,502.0,17_1_40_18481
883,212.0,17_1_40_18515
884,503.0,17_1_40_18530
885,210.0,17_1_40_18548
886,500.0,17_1_40_18564
887,209.0,17_1_40_18581
888,509.0,17_1_40_18597
889,207.0,17_1_40_18632
890,482.0,17_1_40_18648
891,206.0,17_1_40_18665
892,452.0,17_1_40_18680
893,204.0,17_1_40_18715
894,419.0,17_1_40_18731
895,203.0,17_1_40_18748
896,390.0,17_1_40_18764
897,201.0,17_1_40_18797
898,367.0,17_1_40_18814
899,200.0,17_1_40_18831
900,333.0,17_1_40_18850
901,199.0,17_1_40_18881
902,298.0,17_1_40_18897
903,198.0,17_1_40_18914
904,271.0,17_1_40_18931
905,198.0,17_1_40_18948
906,238.0,17_1_40_18964
907,198.0,17_1_40_18998
908,218.0,17_1_40_19014
909,199.0,17_1_40_19031
910,207.0,17_1_40_19048
911,199.0,17_1_40_19081
912,205.0,17_1_41_19098
913,200.0,17_1_41_19114
914,205.0,17_1_41_19131
915,201.0,17_1_41_19148
916,208.0,17_1_41_19164
917,203.0,17_1_41_19197
918,198.0,17_1_41_19215
919,205.0,17_1_41_19231
920,192.0,17_1_41_19248
921,208.0,17_1_41_19281
922,198.0,17_1_41_19298
923,209.0,17_1_41_19314
924,213.0,17_1_41_19331
925,212.0,17_1_41_19364
926,234.0,17_1_41_19381
927,214.0,17_1_41_19398
928,270.0,17_1_41_19414
929,215.0,17_1_41_19448
930,310.0,17_1_41_19464
931,217.0,17_1_41_19481
932,352.0,17_1_41_19498
933,217.0,17_1_41_19515
934,396.0,17_1_41_19531
935,217.0,17_1_41_19565
936,443.0,17_1_41_19581
937,217.0,17_1_41_19598
938,477.0,17_1_41_19614
939,216.0,17_1_41_19648
940,495.0,17_1_41_19664
941,215.0,17_1_41_19681
942,502.0,17_1_41_19698
943,213.0,17_1_41_19731
944,504.0,17_1_41_19747
945,212.0,17_1_41_19764
946,500.0,17_1_41_19781
947,211.0,17_1_41_19815
948,510.0,17_1_41_19831
949,209.0,17_1_41_19848
950,494.0,17_1_41_19865
951,207.0,17_1_41_19881
952,459.0,17_1_41_19898
953,206.0,17_1_41_19932
954,426.0,17_1_41_19948
955,204.0,17_1_41_19965
956,396.0,17_1_41_19981
957,203.0,17_1_41_20015
958,371.0,17_1_41_20031
959,202.0,17_1_41_20048
960,337.0,17_1_41_20065
961,201.0,17_1_41_20081
962,303.0,17_1_42_20097
963,199.0,17_1_42_20132
964,270.0,17_1_42_20148
965,199.0,17_1_42_20165
966,242.0,17_1_42_20181
967,199.0,17_1_42_20215
968,221.0,17_1_42_20231
969,199.0,17_1_42_20248
970,207.0,17_1_42_20265
971,201.0,17_1_42_20298
972,204.0,17_1_42_20314
973,201.0,17_1_42_20331
974,202.0,17_1_42_20348
975,202.0,17_1_42_20381
976,210.0,17_1_42_20397
977,204.0,17_1_42_20414
978,198.0,17_1_42_20431
979,206.0,17_1_42_20465
980,192.0,17_1_42_20481
981,208.0,17_1_42_20498
982,197.0,17_1_42_20514
983,210.0,17_1_42_20532
984,212.0,17_1_42_20548
985,213.0,17_1_42_20581
986,233.0,17_1_42_20597
987,215.0,17_1_42_20615
988,262.0,17_1_42_20631
989,217.0,17_1_42_20664
990,307.0,17_1_42_20685
991,217.0,17_1_42_20698
992,348.0,17_1_42_20715
993,218.0,17_1_42_20748
994,392.0,17_1_42_20765
995,218.0,17_1_42_20781
996,439.0,17_1_42_20798
997,217.0,17_1_42_20814
998,473.0,17_1_42_20831
999,217.0,17_1_42_20865
1000,493.0,17_1_42_20881
1001,215.0,17_1_42_20898
1002,499.0,17_1_42_20914
1003,214.0,17_1_42_20948
1004,502.0,17_1_42_20964
1005,213.0,17_1_42_20981
1006,499.0,17_1_42_20998
1007,211.0,17_1_42_21031
1008,510.0,17_1_42_21047
1009,209.0,17_1_42_21065
1010,494.0,17_1_42_21081
1011,208.0,17_1_43_21100
1012,459.0,17_1_43_21116
1013,207.0,17_1_43_21150
1014,426.0,17_1_43_21167
1015,205.0,17_1_43_21183
1016,401.0,17_1_43_21200
1017,204.0,17_1_43_21234
1018,370.0,17_1_43_21250
1019,203.0,17_1_43_21266
1020,337.0,17_1_43_21283
1021,201.0,17_1_43_21317
1022,301.0,17_1_43_21333
1023,200.0,17_1_43_21350
1024,268.0,17_1_43_21367
1025,200.0,17_1_43_21383
1026,239.0,17_1_43_21400
1027,200.0,17_1_43_21434
1028,218.0,17_1_43_21450
1029,201.0,17_1_43_21467
1030,208.0,17_1_43_21483
1031,201.0,17_1_43_21517
1032,204.0,17_1_43_21533
1033,202.0,17_1_43_21551
1034,205.0,17_1_43_21567
1035,204.0,17_1_43_21601
1036,209.0,17_1_43_21617
1037,205.0,17_1_43_21634
1038,197.0,17_1_43_21650
1039,207.0,17_1_43_21667
1040,192.0,17_1_43_21683
1041,210.0,17_1_43_21717
1042,199.0,17_1_43_21734
1043,212.0,17_1_43_21750
1044,209.0,17_1_43_21767
1045,214.0,17_1_43_21800
1046,237.0,17_1_43_21816
1047,216.0,17_1_43_21834
1048,272.0,17_1_43_21850
1049,217.0,17_1_43_21883
1050,312.0,17_1_43_21900
1051,218.0,17_1_43_21917
1052,354.0,17_1_43_21933
1053,219.0,17_1_43_21967
1054,397.0,17_1_43_21984
1055,219.0,17_1_43_22000
1056,443.0,17_1_43_22017
1057,218.0,17_1_43_22033
1058,484.0,17_1_43_22050
1059,218.0,17_1_44_22084
1060,494.0,17_1_44_22100
1061,216.0,17_1_44_22117
1062,499.0,17_1_44_22133
1063,215.0,17_1_44_22167
1064,501.0,17_1_44_22183
1065,213.0,17_1_44_22200
1066,499.0,17_1_44_22217
1067,212.0,17_1_44_22250
1068,509.0,17_1_44_22267
1069,210.0,17_1_44_22283
1070,490.0,17_1_44_22300
1071,209.0,17_1_44_22334
1072,475.0,17_1_44_22350
1073,207.0,17_1_44_22367
1074,422.0,17_1_44_22384
1075,205.0,17_1_44_22400
1076,393.0,17_1_44_22417
1077,204.0,17_1_44_22451
1078,369.0,17_1_44_22467
1079,202.0,17_1_44_22483
1080,333.0,17_1_44_22501
1081,202.0,17_1_44_22535
1082,294.0,17_1_44_22551
1083,197.0,17_1_44_22567
1084,252.0,17_1_44_22583
1085,199.0,17_1_44_22617
1086,235.0,17_1_44_22633
1087,199.0,17_1_44_22650
1088,219.0,17_1_44_22667
1089,197.0,17_1_44_22684
1090,211.0,17_1_44_22700
1091,196.0,17_1_44_22734
1092,262.0,17_1_44_22750
1093,194.0,17_1_44_22767
1094,221.0,17_1_44_22783
1095,194.0,17_1_44_22818
1096,223.0,17_1_44_22833
1097,194.0,17_1_44_22850
1098,214.0,17_1_44_22867
1099,195.0,17_1_44_22900
1100,217.0,17_1_44_22917
1101,196.0,17_1_44_22933
1102,212.0,17_1_44_22950
1103,197.0,17_1_44_22984
1104,203.0,17_1_44_23000
1105,198.0,17_1_44_23017
1106,200.0,17_1_44_23033
1107,199.0,17_1_44_23050
1108,200.0,17_1_44_23066
1109,200.0,17_1_45_23100
1110,201.0,17_1_45_23117
1111,200.0,17_1_45_23134
1112,201.0,17_1_45_23150
1113,201.0,17_1_45_23183
1114,201.0,17_1_45_23200
1115,201.0,17_1_45_23217
1116,201.0,17_1_45_23233
1117,205.0,17_1_45_23267
1118,203.0,17_1_45_23283
1119,209.0,17_1_45_23300
1120,207.0,17_1_45_23316
1121,211.0,17_1_45_23334
1122,209.0,17_1_45_23350
1123,212.0,17_1_45_23384
1124,210.0,17_1_45_23400
1125,212.0,17_1_45_23417
1126,210.0,17_1_45_23433
1127,211.0,17_1_45_23467
1128,209.0,17_1_45_23483
1129,210.0,17_1_45_23500
1130,209.0,17_1_45_23516
1131,209.0,17_1_45_23550
1132,208.0,17_1_45_23567
1133,208.0,17_1_45_23584
1134,207.0,17_1_45_23600
1135,207.0,17_1_45_23617
1136,206.0,17_1_45_23633
1137,205.0,17_1_45_23667
1138,205.0,17_1_45_23683
1139,204.0,17_1_45_23700
1140,204.0,17_1_45_23717
1141,203.0,17_1_45_23750
1142,203.0,17_1_45_23767
1143,202.0,17_1_45_23784
1144,203.0,17_1_45_23800
1145,202.0,17_1_45_23833
1146,202.0,17_1_45_23850
1147,202.0,17_1_45_23867
1148,203.0,17_1_45_23884
1149,203.0,17_1_45_23917
1150,203.0,17_1_45_23933
1151,204.0,17_1_45_23951
1152,204.0,17_1_45_23967
1153,205.0,17_1_45_24000
1154,205.0,17_1_45_24016
1155,206.0,17_1_45_24034
1156,206.0,17_1_45_24051
1157,208.0,17_1_45_24067
1158,208.0,17_1_45_24083
1159,210.0,17_1_46_24117
1160,210.0,17_1_46_24134
1161,213.0,17_1_46_24151
1162,212.0,17_1_46_24167
1163,215.0,17_1_46_24202
1164,214.0,17_1_46_24216
1165,217.0,17_1_46_24234
1166,216.0,17_1_46_24250
1167,219.0,17_1_46_24268
1168,218.0,17_1_46_24284
1169,221.0,17_1_46_24317
1170,219.0,17_1_46_24333
1171,221.0,17_1_46_24350
1172,219.0,17_1_46_24367
1173,221.0,17_1_46_24401
1174,220.0,17_1_46_24417
1175,221.0,17_1_46_24434
1176,220.0,17_1_46_24450
1177,221.0,17_1_46_24484
1178,219.0,17_1_46_24500
1179,220.0,17_1_46_24517
1180,219.0,17_1_46_24534
1181,219.0,17_1_46_24550
1182,217.0,17_1_46_24567
1183,217.0,17_1_46_24600
1184,216.0,17_1_46_24617
1185,216.0,17_1_46_24634
1186,214.0,17_1_46_24650
1187,214.0,17_1_46_24684
1188,213.0,17_1_46_24700
1189,212.0,17_1_46_24717
1190,212.0,17_1_46_24733
1191,211.0,17_1_46_24766
1192,210.0,17_1_46_24784
1193,210.0,17_1_46_24801
1194,209.0,17_1_46_24817
1195,208.0,17_1_46_24850
1196,208.0,17_1_46_24866
1197,206.0,17_1_46_24883
1198,207.0,17_1_46_24900
1199,205.0,17_1_46_24933
1200,205.0,17_1_46_24950
1201,204.0,17_1_46_24967
1202,205.0,17_1_46_24984
1203,203.0,17_1_46_25017
1204,204.0,17_1_46_25033
1205,203.0,17_1_46_25050
1206,203.0,17_1_46_25067
1207,203.0,17_1_47_25084
1208,203.0,17_1_47_25100
1209,204.0,17_1_47_25133
1210,203.0,17_1_47_25151
1211,204.0,17_1_47_25167
1212,204.0,17_1_47_25183
1213,206.0,17_1_47_25217
1214,206.0,17_1_47_25234
1215,206.0,17_1_47_25250
1216,206.0,17_1_47_25266
1217,208.0,17_1_47_25284
1218,208.0,17_1_47_25300
1219,210.0,17_1_47_25333
1220,210.0,17_1_47_25350
1221,213.0,17_1_47_25366
1222,213.0,17_1_47_25384
1223,215.0,17_1_47_25417
1224,215.0,17_1_47_25434
1225,217.0,17_1_47_25451
1226,217.0,17_1_47_25467
1227,219.0,17_1_47_25501
1228,218.0,17_1_47_25517
1229,220.0,17_1_47_25533
1230,219.0,17_1_47_25550
1231,221.0,17_1_47_25567
1232,219.0,17_1_47_25584
1233,221.0,17_1_47_25617
1234,219.0,17_1_47_25633
1235,221.0,17_1_47_25650
1236,219.0,17_1_47_25667
1237,220.0,17_1_47_25701
1238,218.0,17_1_47_25717
1239,220.0,17_1_47_25734
1240,218.0,17_1_47_25750
1241,218.0,17_1_47_25784
1242,217.0,17_1_47_25800
1243,216.0,17_1_47_25817
1244,216.0,17_1_47_25834
1245,215.0,17_1_47_25867
1246,214.0,17_1_47_25883
1247,213.0,17_1_47_25901
1248,213.0,17_1_47_25917
1249,212.0,17_1_47_25950
1250,212.0,17_1_47_25966
1251,210.0,17_1_47_25984
1252,210.0,17_1_47_26001
1253,210.0,17_1_47_26017
1254,209.0,17_1_47_26034
1255,208.0,17_1_47_26067
1256,208.0,17_1_47_26083
1257,207.0,17_1_48_26100
1258,207.0,17_1_48_26123
1259,206.0,17_1_48_26140
1260,206.0,17_1_48_26156
1261,205.0,17_1_48_26189
1262,205.0,17_1_48_26206
1263,204.0,17_1_48_26223
1264,205.0,17_1_48_26239
1265,204.0,17_1_48_26273
1266,205.0,17_1_48_26289
1267,204.0,17_1_48_26306
1268,205.0,17_1_48_26323
1269,205.0,17_1_48_26340
1270,205.0,17_1_48_26356
1271,206.0,17_1_48_26389
1272,206.0,17_1_48_26406
1273,207.0,17_1_48_26423
1274,207.0,17_1_48_26439
1275,208.0,17_1_48_26472
1276,208.0,17_1_48_26490
1277,210.0,17_1_48_26506
1278,210.0,17_1_48_26523
1279,212.0,17_1_48_26556
1280,212.0,17_1_48_26573
1281,214.0,17_1_48_26590
1282,214.0,17_1_48_26606
1283,217.0,17_1_48_26623
1284,216.0,17_1_48_26639
1285,219.0,17_1_48_26672
1286,218.0,17_1_48_26690
1287,221.0,17_1_48_26706
1288,220.0,17_1_48_26723
1289,222.0,17_1_48_26756
1290,221.0,17_1_48_26773
1291,223.0,17_1_48_26789
1292,221.0,17_1_48_26806
1293,223.0,17_1_48_26840
1294,221.0,17_1_48_26856
1295,222.0,17_1_48_26873
1296,221.0,17_1_48_26889
1297,222.0,17_1_48_26923
1298,221.0,17_1_48_26939
1299,221.0,17_1_48_26956
1300,220.0,17_1_48_26973
1301,220.0,17_1_48_27006
1302,219.0,17_1_48_27023
1303,219.0,17_1_48_27040
1304,218.0,17_1_48_27056
1305,218.0,17_1_48_27073
1306,216.0,17_1_49_27089
1307,216.0,17_1_49_27123
1308,215.0,17_1_49_27140
1309,214.0,17_1_49_27156
1310,213.0,17_1_49_27173
1311,213.0,17_1_49_27206
1312,212.0,17_1_49_27223
1313,211.0,17_1_49_27240
1314,211.0,17_1_49_27257
1315,209.0,17_1_49_27290
1316,209.0,17_1_49_27306
1317,208.0,17_1_49_27323
1318,208.0,17_1_49_27340
1319,207.0,17_1_49_27356
1320,207.0,17_1_49_27373
1321,205.0,17_1_49_27407
1322,206.0,17_1_49_27423
1323,205.0,17_1_49_27440
1324,205.0,17_1_49_27456
1325,204.0,17_1_49_27489
1326,205.0,17_1_49_27506
1327,204.0,17_1_49_27523
1328,205.0,17_1_49_27540
1329,205.0,17_1_49_27573
1330,205.0,17_1_49_27590
1331,205.0,17_1_49_27606
1332,205.0,17_1_49_27623
1333,206.0,17_1_49_27640
1334,206.0,17_1_49_27656
1335,207.0,17_1_49_27689
1336,207.0,17_1_49_27707
1337,209.0,17_1_49_27723
1338,209.0,17_1_49_27740
1339,210.0,17_1_49_27773
1340,210.0,17_1_49_27789
1341,212.0,17_1_49_27806
1342,212.0,17_1_49_27823
1343,214.0,17_1_49_27856
1344,214.0,17_1_49_27873
1345,216.0,17_1_49_27889
1346,216.0,17_1_49_27906
1347,218.0,17_1_49_27940
1348,217.0,17_1_49_27956
1349,219.0,17_1_49_27973
1350,218.0,17_1_49_27990
1351,220.0,17_1_49_28006
1352,219.0,17_1_49_28023
1353,220.0,17_1_49_28056
1354,219.0,17_1_49_28073
1355,220.0,17_1_50_28089
1356,219.0,17_1_50_28106
1357,219.0,17_1_50_28140
1358,218.0,17_1_50_28156
1359,217.0,17_1_50_28173
1360,217.0,17_1_50_28189
1361,217.0,17_1_50_28223
1362,216.0,17_1_50_28240
1363,215.0,17_1_50_28256
1364,214.0,17_1_50_28273
1365,214.0,17_1_50_28306
1366,213.0,17_1_50_28323
1367,211.0,17_1_50_28339
1368,211.0,17_1_50_28357
1369,209.0,17_1_50_28373
1370,209.0,17_1_50_28390
1371,208.0,17_1_50_28423
1372,207.0,17_1_50_28440
1373,206.0,17_1_50_28457
1374,206.0,17_1_50_28473
1375,204.0,17_1_50_28506
1376,204.0,17_1_50_28522
1377,201.0,17_1_50_28540
1378,202.0,17_1_50_28556
1379,200.0,17_1_50_28573
1380,200.0,17_1_50_28589
1381,198.0,17_1_50_28623
1382,199.0,17_1_50_28639
1383,197.0,17_1_50_28656
1384,198.0,17_1_50_28673
1385,196.0,17_1_50_28706
1386,197.0,17_1_50_28723
1387,195.0,17_1_50_28740
1388,196.0,17_1_50_28756
1389,195.0,17_1_50_28789
1390,196.0,17_1_50_28807
1391,195.0,17_1_50_28823
1392,196.0,17_1_50_28840
1393,196.0,17_1_50_28873
1394,197.0,17_1_50_28889
1395,196.0,17_1_50_28906
1396,197.0,17_1_50_28923
1397,197.0,17_1_50_28956
1398,198.0,17_1_50_28973
1399,198.0,17_1_50_28989
1400,199.0,17_1_50_29006
1401,200.0,17_1_50_29023
1402,201.0,17_1_50_29040
1403,201.0,17_1_50_29074
1404,202.0,17_1_51_29089
1405,203.0,17_1_51_29107
1406,203.0,17_1_51_29123
1407,204.0,17_1_51_29157
1408,204.0,17_1_51_29173
1409,205.0,17_1_51_29189
1410,205.0,17_1_51_29206
1411,205.0,17_1_51_29223
1412,205.0,17_1_51_29239
1413,205.0,17_1_51_29273
1414,205.0,17_1_51_29289
1415,205.0,17_1_51_29307
1416,204.0,17_1_51_29323
1417,204.0,17_1_51_29356
1418,203.0,17_1_51_29373
1419,202.0,17_1_51_29390
1420,202.0,17_1_51_29406
1421,201.0,17_1_51_29440
1422,201.0,17_1_51_29456
1423,199.0,17_1_51_29473
1424,199.0,17_1_51_29490
1425,198.0,17_1_51_29506
1426,198.0,17_1_51_29523
1427,196.0,17_1_51_29556
1428,196.0,17_1_51_29572
1429,194.0,17_1_51_29590
1430,194.0,17_1_51_29606
1431,192.0,17_1_51_29640
1432,193.0,17_1_51_29656
1433,191.0,17_1_51_29673
1434,192.0,17_1_51_29690
1435,190.0,17_1_51_29724
1436,190.0,17_1_51_29740
1437,188.0,17_1_51_29756
1438,189.0,17_1_51_29773
1439,187.0,17_1_51_29806
1440,187.0,17_1_51_29823
1441,185.0,17_1_51_29839
1442,186.0,17_1_51_29856
1443,184.0,17_1_51_29889
1444,185.0,17_1_51_29906
1445,183.0,17_1_51_29923
1446,185.0,17_1_51_29940
1447,183.0,17_1_51_29973
1448,184.0,17_1_51_29990
1449,183.0,17_1_51_30006
1450,184.0,17_1_51_30023
1451,183.0,17_1_51_30040
1452,185.0,17_1_51_30056
1453,183.0,17_1_52_30090
1454,185.0,17_1_52_30107
1455,184.0,17_1_52_30123
1456,186.0,17_1_52_30139
1457,185.0,17_1_52_30173
1458,187.0,17_1_52_30189
1459,187.0,17_1_52_30206
1460,189.0,17_1_52_30223
1461,189.0,17_1_52_30256
1462,190.0,17_1_52_30273
1463,191.0,17_1_52_30325
1464,192.0,17_1_52_30380
1465,194.0,17_1_52_30397
1466,194.0,17_1_52_30414
1467,195.0,17_1_52_30430
1468,196.0,17_1_52_30447
1469,197.0,17_1_52_30464
1470,197.0,17_1_52_30480
1471,198.0,17_1_52_30497
1472,198.0,17_1_52_30514
1473,198.0,17_1_52_30531
1474,198.0,17_1_52_30547
1475,198.0,17_1_52_30564
1476,198.0,17_1_52_30580
1477,199.0,17_1_52_30598
1478,199.0,17_1_52_30614
1479,198.0,17_1_52_30630
1480,198.0,17_1_52_30647
1481,196.0,17_1_52_30663
1482,197.0,17_1_52_30680
1483,195.0,17_1_52_30697
1484,196.0,17_1_52_30713
1485,194.0,17_1_52_30730
1486,194.0,17_1_52_30747
1487,193.0,17_1_52_30781
1488,193.0,17_1_52_30798
1489,191.0,17_1_52_30814
1490,192.0,17_1_52_30831
1491,190.0,17_1_52_30864
1492,190.0,17_1_52_30880
1493,189.0,17_1_52_30897
1494,189.0,17_1_52_30914
1495,187.0,17_1_52_30948
1496,188.0,17_1_52_30964
1497,186.0,17_1_52_30981
1498,187.0,17_1_52_30997
1499,185.0,17_1_52_31014
1500,186.0,17_1_52_31030
1501,183.0,17_1_52_31064
1502,185.0,17_1_52_31081
1503,183.0,17_1_53_31097
1504,184.0,17_1_53_31114
1505,182.0,17_1_53_31140
1506,184.0,17_1_53_31156
1507,181.0,17_1_53_31174
1508,183.0,17_1_53_31190
1509,182.0,17_1_53_31224
1510,184.0,17_1_53_31240
1511,182.0,17_1_53_31256
1512,184.0,17_1_53_31274
1513,183.0,17_1_53_31307
1514,185.0,17_1_53_31323
1515,184.0,17_1_53_31341
1516,185.0,17_1_53_31357
1517,185.0,17_1_53_31390
1518,187.0,17_1_53_31406
1519,187.0,17_1_53_31424
1520,188.0,17_1_53_31440
1521,189.0,17_1_53_31473
1522,190.0,17_1_53_31490
1523,190.0,17_1_53_31507
1524,192.0,17_1_53_31524
1525,193.0,17_1_53_31540
1526,193.0,17_1_53_31556
1527,195.0,17_1_53_31590
1528,195.0,17_1_53_31606
1529,196.0,17_1_53_31624
1530,197.0,17_1_53_31640
1531,198.0,17_1_53_31674
1532,198.0,17_1_53_31690
1533,199.0,17_1_53_31707
1534,198.0,17_1_53_31724
1535,199.0,17_1_53_31757
1536,199.0,17_1_53_31774
1537,199.0,17_1_53_31790
1538,199.0,17_1_53_31806
1539,198.0,17_1_53_31840
1540,198.0,17_1_53_31857
1541,198.0,17_1_53_31874
1542,197.0,17_1_53_31890
1543,197.0,17_1_53_31923
1544,197.0,17_1_53_31940
1545,195.0,17_1_53_31957
1546,196.0,17_1_53_31974
1547,195.0,17_1_53_31990
1548,194.0,17_1_53_32007
1549,193.0,17_1_53_32041
1550,193.0,17_1_53_32057
1551,191.0,17_1_53_32074
1552,192.0,17_1_54_32090
1553,190.0,17_1_54_32107
1554,191.0,17_1_54_32124
1555,189.0,17_1_54_32156
1556,189.0,17_1_54_32174
1557,187.0,17_1_54_32190
1558,188.0,17_1_54_32207
1559,186.0,17_1_54_32240
1560,187.0,17_1_54_32256
1561,185.0,17_1_54_32274
1562,186.0,17_1_54_32290
1563,183.0,17_1_54_32324
1564,185.0,17_1_54_32340
1565,182.0,17_1_54_32357
1566,184.0,17_1_54_32374
1567,182.0,17_1_54_32407
1568,184.0,17_1_54_32424
1569,182.0,17_1_54_32440
1570,184.0,17_1_54_32456
1571,182.0,17_1_54_32490
1572,184.0,17_1_54_32507
1573,183.0,17_1_54_32524
1574,184.0,17_1_54_32540
1575,184.0,17_1_54_32556
1576,185.0,17_1_54_32574
1577,185.0,17_1_54_32607
1578,186.0,17_1_54_32624
1579,186.0,17_1_54_32640
1580,187.0,17_1_54_32657
1581,188.0,17_1_54_32690
1582,189.0,17_1_54_32706
1583,189.0,17_1_54_32724
1584,191.0,17_1_54_32740
1585,192.0,17_1_54_32773
1586,193.0,17_1_54_32790
1587,194.0,17_1_54_32807
1588,195.0,17_1_54_32823
1589,195.0,17_1_54_32840
1590,196.0,17_1_54_32856
1591,196.0,17_1_54_32890
1592,196.0,17_1_54_32907
1593,196.0,17_1_54_32923
1594,197.0,17_1_54_32940
1595,196.0,17_1_54_32974
1596,197.0,17_1_54_32990
1597,196.0,17_1_54_33007
1598,196.0,17_1_54_33024
1599,196.0,17_1_54_33057
1600,196.0,17_1_54_33074
1601,196.0,17_1_55_33091
1602,196.0,17_1_55_33107
1603,195.0,17_1_55_33125
1604,195.0,17_1_55_33140
1605,194.0,17_1_55_33174
1606,194.0,17_1_55_33190
1607,193.0,17_1_55_33207
1608,193.0,17_1_55_33223
1609,192.0,17_1_55_33257
1610,192.0,17_1_55_33274
1611,191.0,17_1_55_33291
1612,191.0,17_1_55_33307
1613,190.0,17_1_55_33340
1614,190.0,17_1_55_33357
1615,189.0,17_1_55_33374
1616,189.0,17_1_55_33390
1617,188.0,17_1_55_33423
1618,188.0,17_1_55_33441
1619,186.0,17_1_55_33457
1620,187.0,17_1_55_33473
1621,185.0,17_1_55_33490
1622,186.0,17_1_55_33507
1623,184.0,17_1_55_33541
1624,185.0,17_1_55_33557
1625,183.0,17_1_55_33574
1626,184.0,17_1_55_33590
1627,182.0,17_1_55_33623
1628,183.0,17_1_55_33640
1629,180.0,17_1_55_33657
1630,182.0,17_1_55_33674
1631,180.0,17_1_55_33707
1632,182.0,17_1_55_33723
1633,180.0,17_1_55_33740
1634,182.0,17_1_55_33756
1635,181.0,17_1_55_33790
1636,183.0,17_1_55_33807
1637,181.0,17_1_55_33823
1638,184.0,17_1_55_33840
1639,183.0,17_1_55_33857
1640,184.0,17_1_55_33874
1641,183.0,17_1_55_33907
1642,185.0,17_1_55_33923
1643,185.0,17_1_55_33940
1644,187.0,17_1_55_33956
1645,187.0,17_1_55_33990
1646,188.0,17_1_55_34006
1647,189.0,17_1_55_34023
1648,190.0,17_1_55_34040
1649,191.0,17_1_55_34073
1650,192.0,17_1_56_34091
1651,193.0,17_1_56_34107
1652,194.0,17_1_56_34123
1653,195.0,17_1_56_34140
1654,196.0,17_1_56_34157
1655,196.0,17_1_56_34191
1656,196.0,17_1_56_34207
1657,197.0,17_1_56_34224
1658,197.0,17_1_56_34240
1659,198.0,17_1_56_34274
1660,198.0,17_1_56_34290
1661,198.0,17_1_56_34307
1662,198.0,17_1_56_34324
1663,198.0,17_1_56_34357
1664,198.0,17_1_56_34374
1665,185.0,17_1_56_34391
1666,189.0,17_1_56_34407
1667,183.0,17_1_56_34440
1668,185.0,17_1_56_34457
1669,187.0,17_1_56_34473
1670,187.0,17_1_56_34490
1671,189.0,17_1_56_34507
1672,189.0,17_1_56_34523
1673,190.0,17_1_56_34557
1674,189.0,17_1_56_34574
1675,191.0,17_1_56_34590
1676,189.0,17_1_56_34607
1677,190.0,17_1_56_34640
1678,189.0,17_1_56_34657
1679,189.0,17_1_56_34673
1680,189.0,17_1_56_34690
1681,188.0,17_1_56_34724
1682,188.0,17_1_56_34740
1683,186.0,17_1_56_34757
1684,187.0,17_1_56_34773
1685,185.0,17_1_56_34791
1686,186.0,17_1_56_34806
1687,184.0,17_1_56_34840
1688,185.0,17_1_56_34857
1689,182.0,17_1_56_34874
1690,184.0,17_1_56_34890
1691,182.0,17_1_56_34923
1692,183.0,17_1_56_34940
1693,181.0,17_1_56_34957
1694,183.0,17_1_56_34973
1695,180.0,17_1_56_34991
1696,182.0,17_1_56_35006
1697,180.0,17_1_56_35040
1698,183.0,17_1_56_35057
1699,180.0,17_1_56_35073
1700,182.0,17_1_57_35090
1701,181.0,17_1_57_35124
1702,182.0,17_1_57_35140
1703,181.0,17_1_57_35157
1704,183.0,17_1_57_35174
1705,182.0,17_1_57_35207
1706,184.0,17_1_57_35223
1707,183.0,17_1_57_35240
1708,185.0,17_1_57_35257
1709,184.0,17_1_57_35290
1710,186.0,17_1_57_35307
1711,185.0,17_1_57_35323
1712,187.0,17_1_57_35340
1713,187.0,17_1_57_35374
1714,188.0,17_1_57_35390
1715,188.0,17_1_57_35407
1716,189.0,17_1_57_35424
1717,188.0,17_1_57_35458
1718,189.0,17_1_57_35474
1719,188.0,17_1_57_35491
1720,189.0,17_1_57_35507
1721,187.0,17_1_57_35523
1722,188.0,17_1_57_35540
1723,187.0,17_1_57_35574
1724,188.0,17_1_57_35590
1725,186.0,17_1_57_35607
1726,187.0,17_1_57_35623
1727,186.0,17_1_57_35657
1728,186.0,17_1_57_35673
1729,187.0,17_1_57_35691
1730,187.0,17_1_57_35707
1731,215.0,17_1_57_35740
1732,204.0,17_1_57_35757
1733,288.0,17_1_57_35774
1734,257.0,17_1_57_35790
1735,334.0,17_1_57_35807
1736,303.0,17_1_57_35825
1737,362.0,17_1_57_35857
1738,337.0,17_1_57_35874
1739,380.0,17_1_57_35890
1740,360.0,17_1_57_35907
1741,391.0,17_1_57_35941
1742,375.0,17_1_57_35957
1743,397.0,17_1_57_35973
1744,384.0,17_1_57_35991
1745,400.0,17_1_57_36024
1746,389.0,17_1_57_36040
1747,401.0,17_1_57_36057
1748,392.0,17_1_58_36084
1749,401.0,17_1_58_36119
1750,393.0,17_1_58_36154
1751,400.0,17_1_58_36172
1752,394.0,17_1_58_36188
1753,400.0,17_1_58_36204
1754,394.0,17_1_58_36221
1755,400.0,17_1_58_36238
1756,395.0,17_1_58_36254
1757,402.0,17_1_58_36271
1758,396.0,17_1_58_36288
1759,404.0,17_1_58_36304
1760,399.0,17_1_58_36321
1761,407.0,17_1_58_36338
1762,401.0,17_1_58_36355
1763,410.0,17_1_58_36388
1764,404.0,17_1_58_36404
1765,412.0,17_1_58_36421
1766,406.0,17_1_58_36438
1767,415.0,17_1_58_36471
1768,409.0,17_1_58_36488
1769,418.0,17_1_58_36505
1770,412.0,17_1_58_36521
1771,420.0,17_1_58_36537
1772,415.0,17_1_58_36555
1773,423.0,17_1_58_36588
1774,417.0,17_1_58_36605
1775,425.0,17_1_58_36621
1776,419.0,17_1_58_36637
1777,428.0,17_1_58_36671
1778,422.0,17_1_58_36687
1779,430.0,17_1_58_36705
1780,424.0,17_1_58_36721
1781,433.0,17_1_58_36755
1782,426.0,17_1_58_36771
1783,435.0,17_1_58_36787
1784,428.0,17_1_58_36804
1785,437.0,17_1_58_36838
1786,430.0,17_1_58_36854
1787,439.0,17_1_58_36871
1788,430.0,17_1_58_36887
1789,439.0,17_1_58_36921
1790,431.0,17_1_58_36938
1791,438.0,17_1_58_36955
1792,430.0,17_1_58_36971
1793,435.0,17_1_58_36988
1794,428.0,17_1_58_37005
1795,432.0,17_1_58_37039
1796,426.0,17_1_58_37054
1797,430.0,17_1_58_37071
1798,423.0,17_1_59_37088
1799,427.0,17_1_59_37121
1800,420.0,17_1_59_37138
1801,424.0,17_1_59_37157
1802,417.0,17_1_59_37171
1803,421.0,17_1_59_37188
1804,415.0,17_1_59_37205
1805,418.0,17_1_59_37237
1806,412.0,17_1_59_37254
1807,416.0,17_1_59_37272
1808,409.0,17_1_59_37288
1809,413.0,17_1_59_37322
1810,407.0,17_1_59_37338
1811,410.0,17_1_59_37354
1812,404.0,17_1_59_37371
1813,414.0,17_1_59_37405
1814,406.0,17_1_59_37421
1815,445.0,17_1_59_37438
1816,427.0,17_1_59_37454
1817,464.0,17_1_59_37488
1818,447.0,17_1_59_37505
1819,477.0,17_1_59_37521
1820,462.0,17_1_59_37537
1821,485.0,17_1_59_37554
1822,473.0,17_1_59_37571
1823,490.0,17_1_59_37604
1824,481.0,17_1_59_37621
1825,495.0,17_1_59_37638
1826,485.0,17_1_59_37654
1827,497.0,17_1_59_37688
1828,489.0,17_1_59_37704
1829,498.0,17_1_59_37722
1830,491.0,17_1_59_37738
1831,499.0,17_1_59_37771
1832,493.0,17_1_59_37788
1833,500.0,17_1_59_37805
1834,494.0,17_1_59_37821
1835,501.0,17_1_59_37838
1836,495.0,17_1_59_37855
1837,501.0,17_1_59_37888
1838,495.0,17_1_59_37904
1839,502.0,17_1_59_37922
1840,496.0,17_1_59_37937
1841,502.0,17_1_59_37971
1842,496.0,17_1_59_37988
1843,502.0,17_1_59_38004
1844,495.0,17_1_59_38021
1845,502.0,17_1_59_38055
1846,495.0,17_1_59_38071
1847,502.0,17_2_0_38088
1848,495.0,17_2_0_38105
1849,502.0,17_2_0_38121
1850,495.0,17_2_0_38137
1851,502.0,17_2_0_38171
1852,495.0,17_2_0_38188
1853,502.0,17_2_0_38205
1854,494.0,17_2_0_38221
1855,502.0,17_2_0_38255
1856,494.0,17_2_0_38271
1857,502.0,17_2_0_38288
1858,494.0,17_2_0_38305
1859,502.0,17_2_0_38338
1860,495.0,17_2_0_38355
1861,502.0,17_2_0_38371
1862,495.0,17_2_0_38388
1863,502.0,17_2_0_38421
1864,495.0,17_2_0_38437
1865,502.0,17_2_0_38454
1866,495.0,17_2_0_38471
1867,502.0,17_2_0_38487
1868,495.0,17_2_0_38505
1869,502.0,17_2_0_38538
1870,495.0,17_2_0_38554
1871,502.0,17_2_0_38571
1872,495.0,17_2_0_38588
1873,502.0,17_2_0_38621
1874,495.0,17_2_0_38638
1875,502.0,17_2_0_38659
1876,495.0,17_2_0_38671
1877,502.0,17_2_0_38704
1878,495.0,17_2_0_38721
1879,502.0,17_2_0_38738
1880,495.0,17_2_0_38755
1881,502.0,17_2_0_38788
1882,495.0,17_2_0_38804
1883,502.0,17_2_0_38821
1884,496.0,17_2_0_38838
1885,502.0,17_2_0_38855
1886,496.0,17_2_0_38871
1887,502.0,17_2_0_38904
1888,497.0,17_2_0_38921
1889,502.0,17_2_0_38938
1890,496.0,17_2_0_38954
1891,502.0,17_2_0_38988
1892,496.0,17_2_0_39005
1893,502.0,17_2_0_39021
1894,496.0,17_2_0_39038
1895,503.0,17_2_0_39055
1896,496.0,17_2_0_39071
1897,502.0,17_2_1_39105
1898,496.0,17_2_1_39121
1899,502.0,17_2_1_39138
1900,496.0,17_2_1_39155
1901,502.0,17_2_1_39188
1902,496.0,17_2_1_39205
1903,503.0,17_2_1_39221
1904,496.0,17_2_1_39238
1905,503.0,17_2_1_39271
1906,496.0,17_2_1_39288
1907,502.0,17_2_1_39305
1908,496.0,17_2_1_39321
1909,502.0,17_2_1_39355
1910,495.0,17_2_1_39371
1911,502.0,17_2_1_39388
1912,495.0,17_2_1_39405
1913,502.0,17_2_1_39438
1914,495.0,17_2_1_39454
1915,502.0,17_2_1_39471
1916,495.0,17_2_1_39488
1917,502.0,17_2_1_39504
1918,495.0,17_2_1_39521
1919,502.0,17_2_1_39555
1920,494.0,17_2_1_39571
1921,502.0,17_2_1_39588
1922,494.0,17_2_1_39605
1923,502.0,17_2_1_39638
1924,495.0,17_2_1_39654
1925,502.0,17_2_1_39671
1926,495.0,17_2_1_39688
1927,502.0,17_2_1_39722
1928,495.0,17_2_1_39738
1929,502.0,17_2_1_39755
1930,495.0,17_2_1_39771
1931,502.0,17_2_1_39788
1932,495.0,17_2_1_39805
1933,502.0,17_2_1_39838
1934,495.0,17_2_1_39854
1935,502.0,17_2_1_39871
1936,495.0,17_2_1_39888
1937,502.0,17_2_1_39922
1938,495.0,17_2_1_39938
1939,501.0,17_2_1_39956
1940,495.0,17_2_1_39971
1941,502.0,17_2_1_40005
1942,495.0,17_2_1_40021
1943,502.0,17_2_1_40038
1944,495.0,17_2_1_40054
1945,502.0,17_2_1_40072
1946,495.0,17_2_2_40088
1947,502.0,17_2_2_40121
1948,495.0,17_2_2_40138
1949,502.0,17_2_2_40154
1950,495.0,17_2_2_40171
1951,502.0,17_2_2_40204
1952,496.0,17_2_2_40221
1953,502.0,17_2_2_40238
1954,497.0,17_2_2_40255
1955,502.0,17_2_2_40288
1956,496.0,17_2_2_40304
1957,502.0,17_2_2_40321
1958,496.0,17_2_2_40338
1959,502.0,17_2_2_40371
1960,496.0,17_2_2_40388
1961,502.0,17_2_2_40406
1962,496.0,17_2_2_40421
1963,502.0,17_2_2_40455
1964,496.0,17_2_2_40471
1965,503.0,17_2_2_40488
1966,496.0,17_2_2_40505
1967,502.0,17_2_2_40521
1968,496.0,17_2_2_40537
1969,502.0,17_2_2_40572
1970,496.0,17_2_2_40588
1971,503.0,17_2_2_40604
1972,496.0,17_2_2_40622
1973,502.0,17_2_2_40655
1974,496.0,17_2_2_40671
1975,502.0,17_2_2_40688
1976,496.0,17_2_2_40704
1977,503.0,17_2_2_40738
1978,495.0,17_2_2_40754
1979,502.0,17_2_2_40771
1980,495.0,17_2_2_40788
1981,502.0,17_2_2_40805
1982,495.0,17_2_2_40821
1983,502.0,17_2_2_40855
1984,495.0,17_2_2_40871
1985,502.0,17_2_2_40888
1986,495.0,17_2_2_40904
1987,502.0,17_2_2_40938
1988,495.0,17_2_2_40954
1989,502.0,17_2_2_40971
1990,495.0,17_2_2_40988
1991,502.0,17_2_2_41005
1992,495.0,17_2_2_41021
1993,502.0,17_2_2_41055
1994,495.0,17_2_2_41072
1995,502.0,17_2_3_41088
1996,495.0,17_2_3_41105
1997,502.0,17_2_3_41138
1998,495.0,17_2_3_41154
1999,502.0,17_2_3_41173
2000,495.0,17_2_3_41188
2001,502.0,17_2_3_41222
2002,495.0,17_2_3_41238
2003,502.0,17_2_3_41255
2004,495.0,17_2_3_41272
2005,502.0,17_2_3_41305
2006,495.0,17_2_3_41321
2007,501.0,17_2_3_41339
2008,495.0,17_2_3_41354
2009,502.0,17_2_3_41388
2010,495.0,17_2_3_41405
2011,502.0,17_2_3_41421
2012,495.0,17_2_3_41438
2013,502.0,17_2_3_41471
2014,495.0,17_2_3_41488
2015,502.0,17_2_3_41504
2016,495.0,17_2_3_41521
2017,502.0,17_2_3_41538
2018,496.0,17_2_3_41555
2019,502.0,17_2_3_41588
2020,496.0,17_2_3_41605
2021,502.0,17_2_3_41622
2022,496.0,17_2_3_41638
2023,502.0,17_2_3_41671
2024,496.0,17_2_3_41688
2025,502.0,17_2_3_41705
2026,496.0,17_2_3_41721
2027,502.0,17_2_3_41738
2028,496.0,17_2_3_41755
2029,502.0,17_2_3_41788
2030,496.0,17_2_3_41804
2031,502.0,17_2_3_41821
2032,496.0,17_2_3_41837
2033,502.0,17_2_3_41871
2034,496.0,17_2_3_41888
2035,502.0,17_2_3_41905
2036,496.0,17_2_3_41922
2037,502.0,17_2_3_41955
2038,496.0,17_2_3_41971
2039,502.0,17_2_3_41988
2040,496.0,17_2_3_42004
2041,502.0,17_2_3_42021
2042,495.0,17_2_3_42038
2043,503.0,17_2_3_42072
2044,496.0,17_2_4_42088
2045,503.0,17_2_4_42105
2046,495.0,17_2_4_42122
2047,503.0,17_2_4_42155
2048,495.0,17_2_4_42171
2049,502.0,17_2_4_42188
2050,494.0,17_2_4_42204
2051,502.0,17_2_4_42238
2052,495.0,17_2_4_42254
2053,502.0,17_2_4_42272
2054,495.0,17_2_4_42288
2055,502.0,17_2_4_42322
2056,495.0,17_2_4_42338
2057,502.0,17_2_4_42355
2058,495.0,17_2_4_42372
2059,502.0,17_2_4_42405
2060,495.0,17_2_4_42421
2061,502.0,17_2_4_42438
2062,495.0,17_2_4_42455
2063,502.0,17_2_4_42472
2064,495.0,17_2_4_42488
2065,502.0,17_2_4_42521
2066,495.0,17_2_4_42538
2067,503.0,17_2_4_42555
2068,495.0,17_2_4_42571
2069,502.0,17_2_4_42605
2070,495.0,17_2_4_42621
2071,502.0,17_2_4_42639
2072,495.0,17_2_4_42654
2073,502.0,17_2_4_42672
2074,495.0,17_2_4_42689
2075,502.0,17_2_4_42722
2076,495.0,17_2_4_42738
2077,502.0,17_2_4_42754
2078,495.0,17_2_4_42771
2079,502.0,17_2_4_42805
2080,495.0,17_2_4_42821
2081,502.0,17_2_4_42838
2082,495.0,17_2_4_42854
2083,502.0,17_2_4_42888
2084,497.0,17_2_4_42904
2085,502.0,17_2_4_42922
2086,496.0,17_2_4_42938
2087,502.0,17_2_4_42971
2088,496.0,17_2_4_42988
2089,502.0,17_2_4_43005
2090,496.0,17_2_4_43022
2091,503.0,17_2_4_43038
2092,496.0,17_2_4_43055
2093,503.0,17_2_5_43088
2094,496.0,17_2_5_43105
2095,502.0,17_2_5_43122
2096,496.0,17_2_5_43138
2097,503.0,17_2_5_43171
2098,496.0,17_2_5_43188
2099,502.0,17_2_5_43205
2100,496.0,17_2_5_43222
2101,502.0,17_2_5_43254
2102,496.0,17_2_5_43271
2103,502.0,17_2_5_43288
2104,496.0,17_2_5_43305
2105,502.0,17_2_5_43339
2106,496.0,17_2_5_43355
2107,502.0,17_2_5_43372
2108,496.0,17_2_5_43388
2109,502.0,17_2_5_43404
2110,496.0,17_2_5_43421
2111,508.0,17_2_5_43455
2112,499.0,17_2_5_43471
2113,498.0,17_2_5_43488
2114,494.0,17_2_5_43504
2115,480.0,17_2_5_43538
2116,480.0,17_2_5_43555
2117,469.0,17_2_5_43572
2118,468.0,17_2_5_43588
2119,458.0,17_2_5_43622
2120,457.0,17_2_5_43638
2121,454.0,17_2_5_43655
2122,450.0,17_2_5_43671
2123,454.0,17_2_5_43688
2124,448.0,17_2_5_43704
2125,465.0,17_2_5_43738
2126,455.0,17_2_5_43755
2127,478.0,17_2_5_43771
2128,465.0,17_2_5_43788
2129,486.0,17_2_5_43821
2130,474.0,17_2_5_43838
2131,491.0,17_2_5_43855
2132,480.0,17_2_5_43871
2133,496.0,17_2_5_43905
2134,485.0,17_2_5_43921
2135,497.0,17_2_5_43938
2136,489.0,17_2_5_43954
2137,499.0,17_2_5_43972
2138,491.0,17_2_5_43988
2139,500.0,17_2_5_44022
2140,493.0,17_2_5_44038
2141,500.0,17_2_5_44055
2142,494.0,17_2_6_44087
2143,501.0,17_2_6_44104
2144,494.0,17_2_6_44121
2145,501.0,17_2_6_44137
2146,495.0,17_2_6_44153
2147,502.0,17_2_6_44187
2148,495.0,17_2_6_44203
2149,502.0,17_2_6_44220
2150,496.0,17_2_6_44236
2151,503.0,17_2_6_44270
2152,496.0,17_2_6_44287
2153,502.0,17_2_6_44304
2154,496.0,17_2_6_44320
2155,502.0,17_2_6_44353
2156,496.0,17_2_6_44370
2157,502.0,17_2_6_44387
2158,496.0,17_2_6_44403
2159,502.0,17_2_6_44437
2160,496.0,17_2_6_44454
2161,502.0,17_2_6_44470
2162,496.0,17_2_6_44487
2163,502.0,17_2_6_44503
2164,496.0,17_2_6_44520
2165,502.0,17_2_6_44553
2166,496.0,17_2_6_44570
2167,502.0,17_2_6_44586
2168,496.0,17_2_6_44604
2169,502.0,17_2_6_44637
2170,495.0,17_2_6_44654
2171,503.0,17_2_6_44671
2172,495.0,17_2_6_44687
2173,503.0,17_2_6_44703
2174,496.0,17_2_6_44720
2175,502.0,17_2_6_44754
2176,496.0,17_2_6_44770
2177,502.0,17_2_6_44787
2178,495.0,17_2_6_44804
2179,503.0,17_2_6_44837
2180,495.0,17_2_6_44853
2181,502.0,17_2_6_44870
2182,495.0,17_2_6_44887
2183,502.0,17_2_6_44921
2184,495.0,17_2_6_44936
2185,502.0,17_2_6_44954
2186,495.0,17_2_6_44971
2187,502.0,17_2_6_44987
2188,495.0,17_2_6_45003
2189,502.0,17_2_6_45037
2190,495.0,17_2_6_45053
2191,502.0,17_2_6_45070
2192,495.0,17_2_7_45087
2193,502.0,17_2_7_45121
2194,495.0,17_2_7_45137
2195,502.0,17_2_7_45154
2196,495.0,17_2_7_45170
2197,502.0,17_2_7_45204
2198,495.0,17_2_7_45220
2199,502.0,17_2_7_45237
2200,495.0,17_2_7_45253
2201,502.0,17_2_7_45286
2202,495.0,17_2_7_45304
2203,502.0,17_2_7_45321
2204,495.0,17_2_7_45337
2205,502.0,17_2_7_45371
2206,495.0,17_2_7_45387
2207,503.0,17_2_7_45404
2208,496.0,17_2_7_45420
2209,502.0,17_2_7_45437
2210,496.0,17_2_7_45454
2211,502.0,17_2_7_45487
2212,496.0,17_2_7_45504
2213,502.0,17_2_7_45520
2214,496.0,17_2_7_45537
2215,502.0,17_2_7_45570
2216,496.0,17_2_7_45587
2217,502.0,17_2_7_45603
2218,495.0,17_2_7_45620
2219,502.0,17_2_7_45653
2220,496.0,17_2_7_45670
2221,503.0,17_2_7_45687
2222,496.0,17_2_7_45704
2223,502.0,17_2_7_45720
2224,496.0,17_2_7_45737
2225,502.0,17_2_7_45770
2226,496.0,17_2_7_45787
2227,502.0,17_2_7_45804
2228,496.0,17_2_7_45820
2229,502.0,17_2_7_45854
2230,496.0,17_2_7_45870
2231,502.0,17_2_7_45887
2232,496.0,17_2_7_45904
2233,498.0,17_2_7_45938
2234,493.0,17_2_7_45954
2235,499.0,17_2_7_45970
2236,493.0,17_2_7_45987
2237,501.0,17_2_7_46003
2238,493.0,17_2_7_46020
2239,501.0,17_2_7_46054
2240,494.0,17_2_7_46070
2241,502.0,17_2_8_46087
2242,494.0,17_2_8_46103
2243,501.0,17_2_8_46137
2244,494.0,17_2_8_46154
2245,502.0,17_2_8_46170
2246,494.0,17_2_8_46187
2247,502.0,17_2_8_46220
2248,495.0,17_2_8_46237
2249,500.0,17_2_8_46253
2250,494.0,17_2_8_46270
2251,501.0,17_2_8_46304
2252,494.0,17_2_8_46320
2253,502.0,17_2_8_46337
2254,494.0,17_2_8_46353
2255,502.0,17_2_8_46387
2256,495.0,17_2_8_46403
2257,502.0,17_2_8_46420
2258,495.0,17_2_8_46437
2259,464.0,17_2_8_46454
2260,470.0,17_2_8_46470
2261,427.0,17_2_8_46504
2262,437.0,17_2_8_46520
2263,405.0,17_2_8_46538
2264,412.0,17_2_8_46554
2265,401.0,17_2_8_46587
2266,401.0,17_2_8_46604
2267,402.0,17_2_8_46621
2268,398.0,17_2_8_46637
2269,408.0,17_2_8_46654
2270,400.0,17_2_8_46670
2271,409.0,17_2_8_46704
2272,402.0,17_2_8_46720
2273,406.0,17_2_8_46737
2274,400.0,17_2_8_46753
2275,403.0,17_2_8_46787
2276,398.0,17_2_8_46803
2277,402.0,17_2_8_46820
2278,397.0,17_2_8_46837
2279,404.0,17_2_8_46871
2280,398.0,17_2_8_46887
2281,404.0,17_2_8_46904
2282,399.0,17_2_8_46921
2283,404.0,17_2_8_46954
2284,398.0,17_2_8_46970
2285,403.0,17_2_8_46988
2286,398.0,17_2_8_47003
2287,404.0,17_2_8_47020
2288,398.0,17_2_8_47037
2289,406.0,17_2_8_47071
2290,400.0,17_2_9_47087
2291,404.0,17_2_9_47105
2292,400.0,17_2_9_47120
2293,399.0,17_2_9_47154
2294,396.0,17_2_9_47170
2295,391.0,17_2_9_47187
2296,390.0,17_2_9_47204
2297,386.0,17_2_9_47237
2298,384.0,17_2_9_47254
2299,380.0,17_2_9_47270
2300,378.0,17_2_9_47287
2301,374.0,17_2_9_47320
2302,372.0,17_2_9_47337
2303,373.0,17_2_9_47354
2304,369.0,17_2_9_47370
2305,379.0,17_2_9_47387
2306,371.0,17_2_9_47404
2307,382.0,17_2_9_47437
2308,375.0,17_2_9_47453
2309,378.0,17_2_9_47470
2310,373.0,17_2_9_47487
2311,376.0,17_2_9_47520
2312,371.0,17_2_9_47537
2313,385.0,17_2_9_47554
2314,376.0,17_2_9_47571
2315,405.0,17_2_9_47587
2316,391.0,17_2_9_47604
2317,426.0,17_2_9_47637
2318,409.0,17_2_9_47653
2319,437.0,17_2_9_47671
2320,423.0,17_2_9_47687
2321,437.0,17_2_9_47721
2322,427.0,17_2_9_47737
2323,424.0,17_2_9_47754
2324,420.0,17_2_9_47770
2325,409.0,17_2_9_47804
2326,409.0,17_2_9_47820
2327,398.0,17_2_9_47837
2328,397.0,17_2_9_47854
2329,379.0,17_2_9_47887
2330,382.0,17_2_9_47904
2331,361.0,17_2_9_47921
2332,364.0,17_2_9_47936
2333,347.0,17_2_9_47970
2334,350.0,17_2_9_47987
2335,333.0,17_2_9_48004
2336,336.0,17_2_9_48020
2337,322.0,17_2_9_48037
2338,324.0,17_2_9_48054
2339,316.0,17_2_10_48087
2340,316.0,17_2_10_48104
2341,310.0,17_2_10_48120
2342,309.0,17_2_10_48137
2343,305.0,17_2_10_48171
2344,304.0,17_2_10_48187
2345,302.0,17_2_10_48203
2346,301.0,17_2_10_48220
2347,299.0,17_2_10_48255
2348,297.0,17_2_10_48270
2349,297.0,17_2_10_48287
2350,295.0,17_2_10_48304
2351,296.0,17_2_10_48320
2352,294.0,17_2_10_48337
2353,297.0,17_2_10_48370
2354,295.0,17_2_10_48387
2355,299.0,17_2_10_48404
2356,297.0,17_2_10_48421
2357,301.0,17_2_10_48454
2358,299.0,17_2_10_48470
2359,304.0,17_2_10_48488
2360,301.0,17_2_10_48504
2361,306.0,17_2_10_48537
2362,303.0,17_2_10_48554
2363,309.0,17_2_10_48571
2364,305.0,17_2_10_48587
2365,312.0,17_2_10_48604
2366,308.0,17_2_10_48621
2367,315.0,17_2_10_48654
2368,310.0,17_2_10_48670
2369,316.0,17_2_10_48687
2370,312.0,17_2_10_48703
2371,317.0,17_2_10_48737
2372,313.0,17_2_10_48754
2373,318.0,17_2_10_48771
2374,314.0,17_2_10_48787
2375,318.0,17_2_10_48820
2376,313.0,17_2_10_48837
2377,317.0,17_2_10_48854
2378,313.0,17_2_10_48870
2379,316.0,17_2_10_48904
2380,312.0,17_2_10_48921
2381,314.0,17_2_10_48937
2382,310.0,17_2_10_48954
2383,312.0,17_2_10_48971
2384,308.0,17_2_10_48987
2385,311.0,17_2_10_49021
2386,307.0,17_2_10_49037
2387,309.0,17_2_10_49053
2388,305.0,17_2_10_49070
2389,307.0,17_2_11_49104
2390,303.0,17_2_11_49120
2391,307.0,17_2_11_49137
2392,302.0,17_2_11_49153
2393,306.0,17_2_11_49187
2394,301.0,17_2_11_49204
2395,305.0,17_2_11_49221
2396,300.0,17_2_11_49237
2397,303.0,17_2_11_49270
2398,299.0,17_2_11_49287
2399,302.0,17_2_11_49304
2400,298.0,17_2_11_49320
2401,300.0,17_2_11_49337
2402,297.0,17_2_11_49354
2403,298.0,17_2_11_49387
2404,296.0,17_2_11_49404
2405,297.0,17_2_11_49421
2406,294.0,17_2_11_49438
2407,297.0,17_2_11_49471
2408,293.0,17_2_11_49487
2409,296.0,17_2_11_49503
2410,293.0,17_2_11_49521
2411,296.0,17_2_11_49554
2412,293.0,17_2_11_49570
2413,297.0,17_2_11_49587
2414,294.0,17_2_11_49604
2415,298.0,17_2_11_49620
2416,294.0,17_2_11_49637
2417,299.0,17_2_11_49671
2418,295.0,17_2_11_49687
2419,300.0,17_2_11_49704
2420,297.0,17_2_11_49720
2421,302.0,17_2_11_49754
2422,300.0,17_2_11_49771
2423,305.0,17_2_11_49787
2424,302.0,17_2_11_49804
2425,309.0,17_2_11_49838
2426,305.0,17_2_11_49853
2427,312.0,17_2_11_49871
2428,308.0,17_2_11_49887
2429,315.0,17_2_11_49921
2430,311.0,17_2_11_49937
2431,318.0,17_2_11_49954
2432,313.0,17_2_11_49971
2433,320.0,17_2_11_49987
2434,316.0,17_2_11_50003
2435,322.0,17_2_11_50038
2436,316.0,17_2_11_50053
2437,322.0,17_2_11_50070
2438,317.0,17_2_12_50087
2439,323.0,17_2_12_50121
2440,318.0,17_2_12_50137
2441,323.0,17_2_12_50154
2442,318.0,17_2_12_50171
2443,322.0,17_2_12_50204
2444,317.0,17_2_12_50221
2445,320.0,17_2_12_50237
2446,316.0,17_2_12_50253
2447,319.0,17_2_12_50287
2448,315.0,17_2_12_50303
2449,317.0,17_2_12_50321
2450,313.0,17_2_12_50337
2451,315.0,17_2_12_50354
2452,311.0,17_2_12_50370
2453,313.0,17_2_12_50404
2454,308.0,17_2_12_50421
2455,311.0,17_2_12_50437
2456,306.0,17_2_12_50453
2457,309.0,17_2_12_50487
2458,305.0,17_2_12_50504
2459,306.0,17_2_12_50520
2460,303.0,17_2_12_50538
2461,304.0,17_2_12_50554
2462,301.0,17_2_12_50570
2463,303.0,17_2_12_50604
2464,299.0,17_2_12_50620
2465,300.0,17_2_12_50637
2466,297.0,17_2_12_50653
2467,298.0,17_2_12_50687
2468,295.0,17_2_12_50704
2469,296.0,17_2_12_50720
2470,293.0,17_2_12_50737
2471,295.0,17_2_12_50770
2472,292.0,17_2_12_50787
2473,295.0,17_2_12_50804
2474,292.0,17_2_12_50820
2475,294.0,17_2_12_50854
2476,292.0,17_2_12_50870
2477,294.0,17_2_12_50887
2478,291.0,17_2_12_50903
2479,292.0,17_2_12_50937
2480,289.0,17_2_12_50953
2481,288.0,17_2_12_50971
2482,286.0,17_2_12_50987
2483,284.0,17_2_12_51004
2484,283.0,17_2_12_51021
2485,282.0,17_2_12_51053
2486,281.0,17_2_12_51071
2487,281.0,17_2_13_51087
2488,280.0,17_2_13_51104
2489,282.0,17_2_13_51137
2490,280.0,17_2_13_51153
2491,283.0,17_2_13_51171
2492,281.0,17_2_13_51187
2493,284.0,17_2_13_51204
2494,281.0,17_2_13_51220
2495,283.0,17_2_13_51254
2496,281.0,17_2_13_51270
2497,283.0,17_2_13_51288
2498,279.0,17_2_13_51303
2499,288.0,17_2_13_51337
2500,283.0,17_2_13_51354
2501,301.0,17_2_13_51371
2502,292.0,17_2_13_51388
2503,310.0,17_2_13_51421
2504,301.0,17_2_13_51437
2505,311.0,17_2_13_51454
2506,304.0,17_2_13_51470
2507,299.0,17_2_13_51487
2508,297.0,17_2_13_51503
2509,284.0,17_2_13_51538
2510,285.0,17_2_13_51554
2511,268.0,17_2_13_51570
2512,271.0,17_2_13_51587
2513,252.0,17_2_13_51620
2514,256.0,17_2_13_51637
2515,239.0,17_2_13_51654
2516,243.0,17_2_13_51671
2517,229.0,17_2_13_51704
2518,233.0,17_2_13_51721
2519,220.0,17_2_13_51738
2520,223.0,17_2_13_51754
2521,211.0,17_2_13_51787
2522,214.0,17_2_13_51804
2523,203.0,17_2_13_51820
2524,206.0,17_2_13_51837
2525,196.0,17_2_13_51871
2526,199.0,17_2_13_51887
2527,191.0,17_2_13_51904
2528,194.0,17_2_13_51921
2529,185.0,17_2_13_51938
2530,188.0,17_2_13_51954
2531,179.0,17_2_13_51987
2532,183.0,17_2_13_52004
2533,173.0,17_2_13_52020
2534,177.0,17_2_13_52037
2535,166.0,17_2_13_52070
2536,171.0,17_2_14_52087
2537,159.0,17_2_14_52104
2538,165.0,17_2_14_52120
2539,153.0,17_2_14_52154
2540,159.0,17_2_14_52171
2541,147.0,17_2_14_52188
2542,154.0,17_2_14_52204
2543,142.0,17_2_14_52222
2544,149.0,17_2_14_52237
2545,139.0,17_2_14_52270
2546,145.0,17_2_14_52287
2547,136.0,17_2_14_52304
2548,142.0,17_2_14_52320
2549,133.0,17_2_14_52354
2550,140.0,17_2_14_52371
2551,131.0,17_2_14_52387
2552,138.0,17_2_14_52404
2553,130.0,17_2_14_52437
2554,137.0,17_2_14_52454
2555,130.0,17_2_14_52471
2556,136.0,17_2_14_52487
2557,132.0,17_2_14_52504
2558,137.0,17_2_14_52521
2559,134.0,17_2_14_52554
2560,138.0,17_2_14_52570
2561,136.0,17_2_14_52587
2562,140.0,17_2_14_52604
2563,137.0,17_2_14_52637
2564,141.0,17_2_14_52654
2565,138.0,17_2_14_52671
2566,142.0,17_2_14_52688
2567,138.0,17_2_14_52721
2568,142.0,17_2_14_52737
2569,137.0,17_2_14_52754
2570,142.0,17_2_14_52771
2571,135.0,17_2_14_52804
2572,140.0,17_2_14_52820
2573,133.0,17_2_14_52837
2574,139.0,17_2_14_52854
2575,132.0,17_2_14_52887
2576,137.0,17_2_14_52903
2577,131.0,17_2_14_52920
2578,136.0,17_2_14_52937
2579,130.0,17_2_14_52954
2580,135.0,17_2_14_52971
2581,129.0,17_2_14_53004
2582,134.0,17_2_14_53021
2583,128.0,17_2_14_53038
2584,134.0,17_2_14_53054
2585,127.0,17_2_15_53087
2586,133.0,17_2_15_53104
2587,127.0,17_2_15_53121
2588,133.0,17_2_15_53137
2589,127.0,17_2_15_53171
2590,132.0,17_2_15_53187
2591,126.0,17_2_15_53204
2592,131.0,17_2_15_53221
2593,125.0,17_2_15_53237
2594,131.0,17_2_15_53253
2595,124.0,17_2_15_53288
2596,130.0,17_2_15_53304
2597,124.0,17_2_15_53321
2598,130.0,17_2_15_53338
2599,124.0,17_2_15_53371
2600,130.0,17_2_15_53387
2601,124.0,17_2_15_53404
2602,130.0,17_2_15_53421
2603,124.0,17_2_15_53454
2604,131.0,17_2_15_53471
2605,125.0,17_2_15_53487
2606,131.0,17_2_15_53504
2607,125.0,17_2_15_53521
2608,131.0,17_2_15_53538
2609,127.0,17_2_15_53571
2610,132.0,17_2_15_53588
2611,127.0,17_2_15_53605
2612,133.0,17_2_15_53620
2613,130.0,17_2_15_53653
2614,135.0,17_2_15_53670
2615,133.0,17_2_15_53688
2616,137.0,17_2_15_53704
2617,134.0,17_2_15_53737
2618,139.0,17_2_15_53754
2619,136.0,17_2_15_53771
2620,141.0,17_2_15_53787
2621,137.0,17_2_15_53820
2622,141.0,17_2_15_53837
2623,137.0,17_2_15_53854
2624,142.0,17_2_15_53871
2625,138.0,17_2_15_53904
2626,142.0,17_2_15_53921
2627,138.0,17_2_15_53937
2628,143.0,17_2_15_53954
2629,138.0,17_2_15_53970
2630,143.0,17_2_15_53987
2631,138.0,17_2_15_54021
2632,142.0,17_2_15_54038
2633,136.0,17_2_15_54054
2634,141.0,17_2_15_54071
2635,136.0,17_2_16_54104
2636,141.0,17_2_16_54121
2637,136.0,17_2_16_54138
2638,140.0,17_2_16_54154
2639,135.0,17_2_16_54171
2640,140.0,17_2_16_54188
2641,134.0,17_2_16_54221
2642,139.0,17_2_16_54238
2643,134.0,17_2_16_54254
2644,138.0,17_2_16_54270
2645,135.0,17_2_16_54304
2646,139.0,17_2_16_54320
2647,137.0,17_2_16_54337
2648,140.0,17_2_16_54354
2649,144.0,17_2_16_54388
2650,145.0,17_2_16_54404
2651,151.0,17_2_16_54421
2652,151.0,17_2_16_54437
2653,155.0,17_2_16_54455
2654,156.0,17_2_16_54471
2655,157.0,17_2_16_54505
2656,158.0,17_2_16_54520
2657,155.0,17_2_16_54538
2658,157.0,17_2_16_54555
2659,150.0,17_2_16_54588
2660,155.0,17_2_16_54604
2661,146.0,17_2_16_54621
2662,151.0,17_2_16_54637
2663,142.0,17_2_16_54671
2664,147.0,17_2_16_54687
2665,139.0,17_2_16_54704
2666,144.0,17_2_16_54721
2667,137.0,17_2_16_54754
2668,143.0,17_2_16_54771
2669,135.0,17_2_16_54787
2670,142.0,17_2_16_54804
2671,135.0,17_2_16_54837
2672,141.0,17_2_16_54854
2673,136.0,17_2_16_54871
2674,141.0,17_2_16_54888
2675,138.0,17_2_16_54904
2676,142.0,17_2_16_54921
2677,139.0,17_2_16_54955
2678,143.0,17_2_16_54971
2679,142.0,17_2_16_54987
2680,146.0,17_2_16_55004
2681,145.0,17_2_16_55038
2682,148.0,17_2_16_55054
2683,149.0,17_2_16_55071
2684,152.0,17_2_17_55087
2685,156.0,17_2_17_55104
2686,157.0,17_2_17_55121
2687,165.0,17_2_17_55154
2688,165.0,17_2_17_55171
2689,175.0,17_2_17_55187
2690,172.0,17_2_17_55204
2691,182.0,17_2_17_55237
2692,179.0,17_2_17_55254
2693,189.0,17_2_17_55270
2694,186.0,17_2_17_55287
2695,195.0,17_2_17_55321
2696,192.0,17_2_17_55338
2697,199.0,17_2_17_55354
2698,197.0,17_2_17_55371
2699,200.0,17_2_17_55405
2700,199.0,17_2_17_55421
2701,199.0,17_2_17_55437
2702,199.0,17_2_17_55457
2703,197.0,17_2_17_55471
2704,197.0,17_2_17_55487
2705,194.0,17_2_17_55521
2706,195.0,17_2_17_55537
2707,191.0,17_2_17_55554
2708,192.0,17_2_17_55570
2709,186.0,17_2_17_55604
2710,188.0,17_2_17_55620
2711,182.0,17_2_17_55637
2712,184.0,17_2_17_55654
2713,178.0,17_2_17_55688
2714,180.0,17_2_17_55704
2715,174.0,17_2_17_55721
2716,177.0,17_2_17_55737
2717,171.0,17_2_17_55770
2718,174.0,17_2_17_55787
2719,168.0,17_2_17_55805
2720,171.0,17_2_17_55821
2721,165.0,17_2_17_55838
2722,167.0,17_2_17_55854
2723,161.0,17_2_17_55888
2724,165.0,17_2_17_55904
2725,159.0,17_2_17_55921
2726,163.0,17_2_17_55937
2727,156.0,17_2_17_55970
2728,160.0,17_2_17_55987
2729,153.0,17_2_17_56005
2730,158.0,17_2_17_56021
2731,151.0,17_2_17_56054
2732,156.0,17_2_17_56070
2733,151.0,17_2_18_56088
2734,155.0,17_2_18_56104
2735,150.0,17_2_18_56121
2736,155.0,17_2_18_56137
2737,151.0,17_2_18_56171
2738,155.0,17_2_18_56188
2739,152.0,17_2_18_56204
2740,157.0,17_2_18_56220
2741,155.0,17_2_18_56255
2742,158.0,17_2_18_56271
2743,157.0,17_2_18_56287
2744,159.0,17_2_18_56304
2745,158.0,17_2_18_56337
2746,161.0,17_2_18_56354
2747,160.0,17_2_18_56371
2748,162.0,17_2_18_56387
2749,160.0,17_2_18_56421
2750,163.0,17_2_18_56437
2751,162.0,17_2_18_56454
2752,164.0,17_2_18_56471
2753,163.0,17_2_18_56488
2754,165.0,17_2_18_56504
2755,164.0,17_2_18_56538
2756,166.0,17_2_18_56554
2757,164.0,17_2_18_56571
2758,166.0,17_2_18_56588
2759,165.0,17_2_18_56621
2760,167.0,17_2_18_56638
2761,165.0,17_2_18_56654
2762,167.0,17_2_18_56671
2763,165.0,17_2_18_56704
2764,167.0,17_2_18_56721
2765,165.0,17_2_18_56738
2766,166.0,17_2_18_56754
2767,164.0,17_2_18_56771
2768,166.0,17_2_18_56787
2769,163.0,17_2_18_56821
2770,165.0,17_2_18_56837
2771,163.0,17_2_18_56854
2772,165.0,17_2_18_56871
2773,162.0,17_2_18_56904
2774,164.0,17_2_18_56921
2775,160.0,17_2_18_56937
2776,163.0,17_2_18_56954
2777,160.0,17_2_18_56988
2778,163.0,17_2_18_57005
2779,159.0,17_2_18_57021
2780,162.0,17_2_18_57037
2781,158.0,17_2_18_57055
2782,161.0,17_2_18_57071
2783,157.0,17_2_19_57105
2784,160.0,17_2_19_57121
2785,157.0,17_2_19_57138
2786,160.0,17_2_19_57154
2787,157.0,17_2_19_57187
2788,160.0,17_2_19_57205
2789,157.0,17_2_19_57221
2790,160.0,17_2_19_57237
2791,158.0,17_2_19_57271
2792,160.0,17_2_19_57288
2793,157.0,17_2_19_57304
2794,161.0,17_2_19_57321
2795,158.0,17_2_19_57354
2796,162.0,17_2_19_57371
2797,159.0,17_2_19_57388
2798,162.0,17_2_19_57404
2799,160.0,17_2_19_57438
2800,163.0,17_2_19_57454
2801,162.0,17_2_19_57471
2802,165.0,17_2_19_57487
2803,164.0,17_2_19_57504
2804,167.0,17_2_19_57521
2805,167.0,17_2_19_57555
2806,169.0,17_2_19_57571
2807,168.0,17_2_19_57588
2808,170.0,17_2_19_57604
2809,170.0,17_2_19_57637
2810,172.0,17_2_19_57654
2811,172.0,17_2_19_57670
2812,173.0,17_2_19_57687
2813,174.0,17_2_19_57705
2814,175.0,17_2_19_57721
2815,175.0,17_2_19_57754
2816,176.0,17_2_19_57771
2817,175.0,17_2_19_57787
2818,176.0,17_2_19_57804
2819,176.0,17_2_19_57837
2820,177.0,17_2_19_57854
2821,176.0,17_2_19_57871
2822,177.0,17_2_19_57888
2823,175.0,17_2_19_57921
2824,176.0,17_2_19_57938
2825,173.0,17_2_19_57955
2826,175.0,17_2_19_57971
2827,172.0,17_2_19_58004
2828,174.0,17_2_19_58021
2829,171.0,17_2_19_58037
2830,173.0,17_2_19_58054
2831,169.0,17_2_19_58071
2832,171.0,17_2_20_58087
2833,167.0,17_2_20_58121
2834,170.0,17_2_20_58137
2835,166.0,17_2_20_58155
2836,168.0,17_2_20_58171
2837,165.0,17_2_20_58205
2838,167.0,17_2_20_58221
2839,163.0,17_2_20_58237
2840,166.0,17_2_20_58254
2841,162.0,17_2_20_58288
2842,165.0,17_2_20_58304
2843,161.0,17_2_20_58321
2844,164.0,17_2_20_58338
2845,160.0,17_2_20_58371
2846,163.0,17_2_20_58387
2847,159.0,17_2_20_58404
2848,162.0,17_2_20_58421
2849,159.0,17_2_20_58437
2850,162.0,17_2_20_58454
2851,160.0,17_2_20_58488
2852,163.0,17_2_20_58504
2853,161.0,17_2_20_58521
2854,164.0,17_2_20_58538
2855,163.0,17_2_20_58570
2856,165.0,17_2_20_58588
2857,165.0,17_2_20_58605
2858,167.0,17_2_20_58621
2859,167.0,17_2_20_58654
2860,169.0,17_2_20_58670
2861,169.0,17_2_20_58688
2862,171.0,17_2_20_58705
2863,171.0,17_2_20_58738
2864,173.0,17_2_20_58754
2865,172.0,17_2_20_58771
2866,174.0,17_2_20_58787
2867,174.0,17_2_20_58805
2868,176.0,17_2_20_58821
2869,175.0,17_2_20_58855
2870,176.0,17_2_20_58871
2871,175.0,17_2_20_58888
2872,177.0,17_2_20_58904
2873,174.0,17_2_20_58938
2874,176.0,17_2_20_58955
2875,172.0,17_2_20_58971
2876,175.0,17_2_20_58987
2877,172.0,17_2_20_59004
2878,174.0,17_2_20_59021
2879,172.0,17_2_20_59054
2880,173.0,17_2_20_59071
2881,171.0,17_2_21_59088
2882,173.0,17_2_21_59105
2883,168.0,17_2_21_59138
2884,170.0,17_2_21_59154
2885,163.0,17_2_21_59171
2886,167.0,17_2_21_59187
2887,157.0,17_2_21_59222
2888,162.0,17_2_21_59238
2889,152.0,17_2_21_59254
2890,157.0,17_2_21_59271
2891,146.0,17_2_21_59305
2892,152.0,17_2_21_59321
2893,142.0,17_2_21_59338
2894,147.0,17_2_21_59354
2895,140.0,17_2_21_59388
2896,145.0,17_2_21_59404
2897,139.0,17_2_21_59421
2898,143.0,17_2_21_59438
2899,138.0,17_2_21_59454
2900,142.0,17_2_21_59471
2901,136.0,17_2_21_59504
2902,140.0,17_2_21_59521
2903,134.0,17_2_21_59537
2904,139.0,17_2_21_59554
2905,132.0,17_2_21_59588
2906,138.0,17_2_21_59604
2907,131.0,17_2_21_59622
2908,137.0,17_2_21_59638
2909,130.0,17_2_21_59671
2910,136.0,17_2_21_59688
2911,130.0,17_2_21_59705
2912,135.0,17_2_21_59721
2913,129.0,17_2_21_59738
2914,135.0,17_2_21_59754
2915,130.0,17_2_21_59788
2916,136.0,17_2_21_59804
2917,132.0,17_2_21_59821
2918,137.0,17_2_21_59837
2919,133.0,17_2_21_59871
2920,138.0,17_2_21_59888
2921,134.0,17_2_21_59904
2922,139.0,17_2_21_59921
2923,135.0,17_2_21_59955
2924,140.0,17_2_21_59971
2925,137.0,17_2_21_59988
2926,141.0,17_2_21_60004
2927,138.0,17_2_21_60021
2928,143.0,17_2_21_60038
2929,140.0,17_2_21_60071
2930,144.0,17_2_22_60088
2931,141.0,17_2_22_60105
2932,145.0,17_2_22_60121
2933,142.0,17_2_22_60155
2934,146.0,17_2_22_60171
2935,143.0,17_2_22_60188
2936,147.0,17_2_22_60204
2937,144.0,17_2_22_60238
2938,147.0,17_2_22_60254
2939,144.0,17_2_22_60271
2940,148.0,17_2_22_60288
2941,145.0,17_2_22_60321
2942,148.0,17_2_22_60338
2943,144.0,17_2_22_60384
2944,148.0,17_2_22_60426
2945,144.0,17_2_22_60443
2946,148.0,17_2_22_60460
2947,144.0,17_2_22_60476
2948,147.0,17_2_22_60492
2949,143.0,17_2_22_60509
2950,147.0,17_2_22_60526
2951,142.0,17_2_22_60543
2952,146.0,17_2_22_60559
2953,141.0,17_2_22_60576
2954,145.0,17_2_22_60592
2955,141.0,17_2_22_60609
2956,145.0,17_2_22_60626
2957,141.0,17_2_22_60642
2958,144.0,17_2_22_60659
2959,140.0,17_2_22_60676
2960,144.0,17_2_22_60692
2961,140.0,17_2_22_60726
2962,144.0,17_2_22_60742
2963,139.0,17_2_22_60759
2964,143.0,17_2_22_60776
2965,139.0,17_2_22_60809
2966,143.0,17_2_22_60826
2967,138.0,17_2_22_60844
2968,142.0,17_2_22_60860
2969,138.0,17_2_22_60876
2970,142.0,17_2_22_60892
2971,138.0,17_2_22_60926
2972,143.0,17_2_22_60943
2973,139.0,17_2_22_60959
2974,143.0,17_2_22_60976
2975,140.0,17_2_22_61009
2976,144.0,17_2_22_61026
2977,141.0,17_2_22_61043
2978,145.0,17_2_22_61059
2979,142.0,17_2_23_61093
2980,146.0,17_2_23_61109
2981,143.0,17_2_23_61127
2982,147.0,17_2_23_61143
2983,145.0,17_2_23_61160
2984,149.0,17_2_23_61176
2985,147.0,17_2_23_61210
2986,151.0,17_2_23_61227
2987,149.0,17_2_23_61243
2988,152.0,17_2_23_61259
2989,151.0,17_2_23_61292
2990,154.0,17_2_23_61309
2991,152.0,17_2_23_61326
2992,155.0,17_2_23_61342
2993,153.0,17_2_23_61376
2994,156.0,17_2_23_61393
2995,154.0,17_2_23_61410
2996,157.0,17_2_23_61426
2997,156.0,17_2_23_61443
2998,158.0,17_2_23_61459
2999,157.0,17_2_23_61493
3000,159.0,17_2_23_61509
3001,158.0,17_2_23_61526
3002,160.0,17_2_23_61543
3003,158.0,17_2_23_61577
3004,160.0,17_2_23_61593
3005,158.0,17_2_23_61610
3006,160.0,17_2_23_61626
3007,157.0,17_2_23_61660
3008,159.0,17_2_23_61676
3009,157.0,17_2_23_61692
3010,159.0,17_2_23_61710
3011,156.0,17_2_23_61743
3012,158.0,17_2_23_61759
3013,155.0,17_2_23_61776
3014,158.0,17_2_23_61792
3015,154.0,17_2_23_61826
3016,157.0,17_2_23_61843
3017,153.0,17_2_23_61859
3018,156.0,17_2_23_61876
3019,152.0,17_2_23_61892
3020,155.0,17_2_23_61910
3021,151.0,17_2_23_61943
3022,154.0,17_2_23_61959
3023,149.0,17_2_23_61976
3024,153.0,17_2_23_61993
3025,148.0,17_2_23_62027
3026,152.0,17_2_23_62042
3027,148.0,17_2_23_62059
3028,151.0,17_2_23_62077
3029,147.0,17_2_24_62093
3030,151.0,17_2_24_62109
3031,147.0,17_2_24_62143
3032,151.0,17_2_24_62159
3033,147.0,17_2_24_62176
3034,151.0,17_2_24_62192
3035,149.0,17_2_24_62226
3036,153.0,17_2_24_62242
3037,150.0,17_2_24_62260
3038,153.0,17_2_24_62276
3039,151.0,17_2_24_62309
3040,155.0,17_2_24_62326
3041,154.0,17_2_24_62343
3042,157.0,17_2_24_62359
3043,157.0,17_2_24_62392
3044,160.0,17_2_24_62410
3045,160.0,17_2_24_62427
3046,163.0,17_2_24_62443
3047,162.0,17_2_24_62459
3048,165.0,17_2_24_62476
3049,165.0,17_2_24_62509
3050,167.0,17_2_24_62526
3051,167.0,17_2_24_62543
3052,168.0,17_2_24_62559
3053,167.0,17_2_24_62593
3054,169.0,17_2_24_62609
3055,167.0,17_2_24_62626
3056,169.0,17_2_24_62643
3057,166.0,17_2_24_62676
3058,169.0,17_2_24_62693
3059,166.0,17_2_24_62709
3060,168.0,17_2_24_62726
3061,165.0,17_2_24_62743
3062,167.0,17_2_24_62759
3063,164.0,17_2_24_62793
3064,166.0,17_2_24_62810
3065,163.0,17_2_24_62826
3066,165.0,17_2_24_62843
3067,162.0,17_2_24_62876
3068,164.0,17_2_24_62893
3069,161.0,17_2_24_62909
3070,163.0,17_2_24_62926
3071,159.0,17_2_24_62959
3072,162.0,17_2_24_62976
3073,159.0,17_2_24_62993
3074,161.0,17_2_24_63009
3075,158.0,17_2_24_63026
3076,161.0,17_2_24_63043
3077,158.0,17_2_24_63076
3078,160.0,17_2_25_63093
3079,157.0,17_2_25_63109
3080,160.0,17_2_25_63126
3081,157.0,17_2_25_63159
3082,160.0,17_2_25_63176
3083,156.0,17_2_25_63193
3084,159.0,17_2_25_63209
3085,156.0,17_2_25_63242
3086,159.0,17_2_25_63259
3087,155.0,17_2_25_63277
3088,158.0,17_2_25_63293
3089,155.0,17_2_25_63327
3090,158.0,17_2_25_63342
3091,155.0,17_2_25_63360
3092,158.0,17_2_25_63377
3093,155.0,17_2_25_63409
3094,158.0,17_2_25_63426
3095,156.0,17_2_25_63444
3096,158.0,17_2_25_63460
3097,156.0,17_2_25_63476
3098,160.0,17_2_25_63493
3099,159.0,17_2_25_63527
3100,162.0,17_2_25_63543
3101,161.0,17_2_25_63561
3102,164.0,17_2_25_63576
3103,163.0,17_2_25_63609
3104,166.0,17_2_25_63627
3105,164.0,17_2_25_63643
3106,167.0,17_2_25_63659
3107,166.0,17_2_25_63692
3108,169.0,17_2_25_63709
3109,168.0,17_2_25_63726
3110,170.0,17_2_25_63743
3111,168.0,17_2_25_63760
3112,170.0,17_2_25_63776
3113,170.0,17_2_25_63810
3114,171.0,17_2_25_63826
3115,174.0,17_2_25_63844
3116,174.0,17_2_25_63860
3117,185.0,17_2_25_63893
3118,181.0,17_2_25_63910
3119,198.0,17_2_25_63926
3120,192.0,17_2_25_63943
3121,206.0,17_2_25_63961
3122,201.0,17_2_25_63976
3123,212.0,17_2_25_64010
3124,207.0,17_2_25_64026
3125,215.0,17_2_25_64043
3126,211.0,17_2_25_64059
3127,215.0,17_2_26_64093
3128,213.0,17_2_26_64109
3129,213.0,17_2_26_64127
3130,212.0,17_2_26_64143
3131,210.0,17_2_26_64177
3132,210.0,17_2_26_64192
3133,208.0,17_2_26_64210
3134,208.0,17_2_26_64226
3135,209.0,17_2_26_64260
3136,208.0,17_2_26_64276
3137,209.0,17_2_26_64293
3138,208.0,17_2_26_64310
3139,208.0,17_2_26_64343
3140,208.0,17_2_26_64359
3141,209.0,17_2_26_64377
3142,208.0,17_2_26_64393
3143,208.0,17_2_26_64426
3144,208.0,17_2_26_64443
3145,207.0,17_2_26_64460
3146,207.0,17_2_26_64477
3147,206.0,17_2_26_64493
3148,207.0,17_2_26_64509
3149,206.0,17_2_26_64543
3150,207.0,17_2_26_64559
3151,205.0,17_2_26_64576
3152,206.0,17_2_26_64593
3153,206.0,17_2_26_64626
3154,206.0,17_2_26_64643
3155,205.0,17_2_26_64660
3156,205.0,17_2_26_64676
3157,203.0,17_2_26_64711
3158,204.0,17_2_26_64726
3159,198.0,17_2_26_64743
3160,201.0,17_2_26_64759
3161,190.0,17_2_26_64777
3162,195.0,17_2_26_64793
3163,179.0,17_2_26_64826
3164,185.0,17_2_26_64843
3165,168.0,17_2_26_64860
3166,176.0,17_2_26_64876
3167,159.0,17_2_26_64910
3168,167.0,17_2_26_64926
3169,153.0,17_2_26_64943
3170,159.0,17_2_26_64959
3171,147.0,17_2_26_64976
3172,154.0,17_2_26_64993
3173,142.0,17_2_26_65026
3174,148.0,17_2_26_65043
3175,138.0,17_2_26_65060
3176,144.0,17_2_26_65076
3177,134.0,17_2_27_65110
3178,141.0,17_2_27_65127
3179,131.0,17_2_27_65143
3180,138.0,17_2_27_65159
3181,129.0,17_2_27_65193
3182,135.0,17_2_27_65210
3183,127.0,17_2_27_65227
3184,133.0,17_2_27_65243
3185,126.0,17_2_27_65277
3186,131.0,17_2_27_65292
3187,125.0,17_2_27_65309
3188,130.0,17_2_27_65326
3189,122.0,17_2_27_65359
3190,128.0,17_2_27_65377
3191,121.0,17_2_27_65393
3192,126.0,17_2_27_65410
3193,118.0,17_2_27_65426
3194,125.0,17_2_27_65443
3195,117.0,17_2_27_65477
3196,124.0,17_2_27_65493
3197,115.0,17_2_27_65509
3198,122.0,17_2_27_65526
3199,114.0,17_2_27_65560
3200,122.0,17_2_27_65577
3201,113.0,17_2_27_65593
3202,120.0,17_2_27_65609
3203,112.0,17_2_27_65626
3204,119.0,17_2_27_65643
3205,111.0,17_2_27_65677
3206,119.0,17_2_27_65693
3207,110.0,17_2_27_65710
3208,119.0,17_2_27_65726
3209,111.0,17_2_27_65760
3210,119.0,17_2_27_65776
3211,111.0,17_2_27_65793
3212,119.0,17_2_27_65810
3213,112.0,17_2_27_65844
3214,119.0,17_2_27_65860
3215,113.0,17_2_27_65877
3216,121.0,17_2_27_65893
3217,115.0,17_2_27_65926
3218,122.0,17_2_27_65943
3219,117.0,17_2_27_65959
3220,124.0,17_2_27_65977
3221,119.0,17_2_27_65993
3222,126.0,17_2_27_66010
3223,120.0,17_2_27_66043
3224,127.0,17_2_27_66059
3225,122.0,17_2_27_66077
3226,129.0,17_2_28_66093
3227,124.0,17_2_28_66126
3228,129.0,17_2_28_66143
3229,125.0,17_2_28_66160
3230,130.0,17_2_28_66176
3231,125.0,17_2_28_66210
3232,131.0,17_2_28_66226
3233,126.0,17_2_28_66243
3234,131.0,17_2_28_66260
3235,125.0,17_2_28_66293
3236,131.0,17_2_28_66309
3237,125.0,17_2_28_66326
3238,131.0,17_2_28_66343
3239,125.0,17_2_28_66360
3240,130.0,17_2_28_66376
3241,124.0,17_2_28_66410
3242,130.0,17_2_28_66426
3243,124.0,17_2_28_66443
3244,129.0,17_2_28_66460
3245,123.0,17_2_28_66493
3246,129.0,17_2_28_66509
3247,123.0,17_2_28_66527
3248,129.0,17_2_28_66543
3249,123.0,17_2_28_66577
3250,129.0,17_2_28_66593
3251,123.0,17_2_28_66609
3252,128.0,17_2_28_66626
3253,121.0,17_2_28_66660
3254,128.0,17_2_28_66676
3255,121.0,17_2_28_66693
3256,127.0,17_2_28_66710
3257,119.0,17_2_28_66727
3258,126.0,17_2_28_66743
3259,118.0,17_2_28_66776
3260,125.0,17_2_28_66793
3261,117.0,17_2_28_66810
3262,124.0,17_2_28_66826
3263,116.0,17_2_28_66860
3264,124.0,17_2_28_66876
3265,116.0,17_2_28_66893
3266,123.0,17_2_28_66909
3267,115.0,17_2_28_66927
3268,122.0,17_2_28_66943
3269,115.0,17_2_28_66977
3270,123.0,17_2_28_66993
3271,116.0,17_2_28_67010
3272,123.0,17_2_28_67026
3273,116.0,17_2_28_67060
3274,124.0,17_2_28_67076
3275,117.0,17_2_29_67093
3276,125.0,17_2_29_67110
3277,119.0,17_2_29_67143
3278,126.0,17_2_29_67160
3279,120.0,17_2_29_67176
3280,127.0,17_2_29_67193
3281,122.0,17_2_29_67226
3282,128.0,17_2_29_67243
3283,123.0,17_2_29_67260
3284,129.0,17_2_29_67276
3285,124.0,17_2_29_67311
3286,129.0,17_2_29_67327
3287,125.0,17_2_29_67343
3288,130.0,17_2_29_67360
3289,125.0,17_2_29_67376
3290,130.0,17_2_29_67393
3291,125.0,17_2_29_67427
3292,130.0,17_2_29_67443
3293,124.0,17_2_29_67459
3294,130.0,17_2_29_67476
3295,123.0,17_2_29_67510
3296,129.0,17_2_29_67526
3297,123.0,17_2_29_67543
3298,128.0,17_2_29_67560
3299,121.0,17_2_29_67593
3300,127.0,17_2_29_67610
3301,121.0,17_2_29_67627
3302,126.0,17_2_29_67643
3303,120.0,17_2_29_67660
3304,125.0,17_2_29_67676
3305,119.0,17_2_29_67710
3306,125.0,17_2_29_67727
3307,118.0,17_2_29_67743
3308,124.0,17_2_29_67760
3309,117.0,17_2_29_67793
3310,124.0,17_2_29_67810
3311,116.0,17_2_29_67826
3312,123.0,17_2_29_67843
3313,115.0,17_2_29_67876
3314,122.0,17_2_29_67893
3315,114.0,17_2_29_67910
3316,122.0,17_2_29_67926
3317,113.0,17_2_29_67943
3318,121.0,17_2_29_67959
3319,113.0,17_2_29_67993
3320,120.0,17_2_29_68010
3321,113.0,17_2_29_68027
3322,120.0,17_2_29_68043
3323,112.0,17_2_29_68076
3324,120.0,17_2_30_68093
3325,112.0,17_2_30_68110
3326,120.0,17_2_30_68127
3327,113.0,17_2_30_68160
3328,120.0,17_2_30_68177
3329,114.0,17_2_30_68193
3330,121.0,17_2_30_68209
3331,115.0,17_2_30_68243
3332,122.0,17_2_30_68259
3333,116.0,17_2_30_68276
3334,124.0,17_2_30_68293
3335,118.0,17_2_30_68310
3336,125.0,17_2_30_68326
3337,120.0,17_2_30_68361
3338,127.0,17_2_30_68376
3339,122.0,17_2_30_68393
3340,128.0,17_2_30_68410
3341,124.0,17_2_30_68443
3342,129.0,17_2_30_68460
3343,125.0,17_2_30_68477
3344,130.0,17_2_30_68493
3345,125.0,17_2_30_68527
3346,131.0,17_2_30_68543
3347,126.0,17_2_30_68560
3348,132.0,17_2_30_68576
3349,127.0,17_2_30_68593
3350,131.0,17_2_30_68610
3351,126.0,17_2_30_68643
3352,131.0,17_2_30_68660
3353,125.0,17_2_30_68676
3354,130.0,17_2_30_68693
3355,124.0,17_2_30_68727
3356,130.0,17_2_30_68743
3357,123.0,17_2_30_68760
3358,128.0,17_2_30_68777
3359,122.0,17_2_30_68810
3360,128.0,17_2_30_68827
3361,121.0,17_2_30_68843
3362,127.0,17_2_30_68860
3363,120.0,17_2_30_68893
3364,126.0,17_2_30_68910
3365,119.0,17_2_30_68927
3366,126.0,17_2_30_68944
3367,118.0,17_2_30_68960
3368,125.0,17_2_30_68976
3369,118.0,17_2_30_69010
3370,124.0,17_2_30_69026
3371,116.0,17_2_30_69043
3372,124.0,17_2_30_69059
3373,116.0,17_2_31_69094
3374,123.0,17_2_31_69110
3375,114.0,17_2_31_69127
3376,122.0,17_2_31_69143
3377,114.0,17_2_31_69177
3378,121.0,17_2_31_69193
3379,113.0,17_2_31_69209
3380,120.0,17_2_31_69226
3381,113.0,17_2_31_69260
3382,121.0,17_2_31_69277
3383,113.0,17_2_31_69293
3384,121.0,17_2_31_69310
3385,114.0,17_2_31_69326
3386,121.0,17_2_31_69343
3387,114.0,17_2_31_69377
3388,122.0,17_2_31_69393
3389,115.0,17_2_31_69411
3390,123.0,17_2_31_69427
3391,117.0,17_2_31_69460
3392,124.0,17_2_31_69476
3393,119.0,17_2_31_69494
3394,125.0,17_2_31_69509
3395,121.0,17_2_31_69526
3396,127.0,17_2_31_69543
3397,123.0,17_2_31_69577
3398,128.0,17_2_31_69593
3399,124.0,17_2_31_69610
3400,129.0,17_2_31_69626
3401,126.0,17_2_31_69660
3402,131.0,17_2_31_69676
3403,126.0,17_2_31_69693
3404,131.0,17_2_31_69709
3405,127.0,17_2_31_69743
3406,132.0,17_2_31_69760
3407,127.0,17_2_31_69777
3408,132.0,17_2_31_69793
3409,126.0,17_2_31_69827
3410,131.0,17_2_31_69844
3411,125.0,17_2_31_69860
3412,130.0,17_2_31_69877
3413,125.0,17_2_31_69910
3414,130.0,17_2_31_69926
3415,123.0,17_2_31_69943
3416,129.0,17_2_31_69960
3417,123.0,17_2_31_69976
3418,128.0,17_2_31_69993
3419,121.0,17_2_31_70026
3420,127.0,17_2_31_70043
3421,121.0,17_2_31_70060
3422,126.0,17_2_31_70076
3423,120.0,17_2_32_70110
3424,125.0,17_2_32_70127
3425,119.0,17_2_32_70144
3426,125.0,17_2_32_70160
3427,117.0,17_2_32_70193
3428,124.0,17_2_32_70210
3429,116.0,17_2_32_70226
3430,123.0,17_2_32_70243
3431,116.0,17_2_32_70277
3432,122.0,17_2_32_70293
3433,115.0,17_2_32_70309
3434,122.0,17_2_32_70326
3435,114.0,17_2_32_70344
3436,122.0,17_2_32_70360
3437,114.0,17_2_32_70393
3438,121.0,17_2_32_70410
3439,115.0,17_2_32_70426
3440,122.0,17_2_32_70444
3441,115.0,17_2_32_70477
3442,123.0,17_2_32_70493
3443,117.0,17_2_32_70510
3444,124.0,17_2_32_70526
3445,118.0,17_2_32_70543
3446,125.0,17_2_32_70560
3447,120.0,17_2_32_70593
3448,127.0,17_2_32_70610
3449,123.0,17_2_32_70627
3450,129.0,17_2_32_70643
3451,126.0,17_2_32_70676
3452,132.0,17_2_32_70693
3453,129.0,17_2_32_70710
3454,134.0,17_2_32_70726
3455,131.0,17_2_32_70760
3456,136.0,17_2_32_70777
3457,133.0,17_2_32_70793
3458,138.0,17_2_32_70810
3459,135.0,17_2_32_70844
3460,139.0,17_2_32_70860
3461,137.0,17_2_32_70877
3462,141.0,17_2_32_70893
3463,140.0,17_2_32_70927
3464,143.0,17_2_32_70943
3465,153.0,17_2_32_70960
3466,151.0,17_2_32_70976
3467,174.0,17_2_32_70993
3468,168.0,17_2_32_71010
3469,191.0,17_2_32_71043
3470,184.0,17_2_32_71059
3471,204.0,17_2_32_71077
3472,196.0,17_2_33_71093
3473,211.0,17_2_33_71127
3474,205.0,17_2_33_71143
3475,215.0,17_2_33_71160
3476,210.0,17_2_33_71177
3477,217.0,17_2_33_71210
3478,213.0,17_2_33_71226
3479,217.0,17_2_33_71244
3480,214.0,17_2_33_71260
3481,216.0,17_2_33_71276
3482,214.0,17_2_33_71294
3483,215.0,17_2_33_71327
3484,214.0,17_2_33_71343
3485,213.0,17_2_33_71360
3486,212.0,17_2_33_71377
3487,211.0,17_2_33_71410
3488,211.0,17_2_33_71426
3489,210.0,17_2_33_71444
3490,210.0,17_2_33_71460
3491,208.0,17_2_33_71477
3492,208.0,17_2_33_71493
3493,207.0,17_2_33_71527
3494,207.0,17_2_33_71543
3495,206.0,17_2_33_71560
3496,207.0,17_2_33_71576
3497,206.0,17_2_33_71610
3498,206.0,17_2_33_71626
3499,205.0,17_2_33_71644
3500,206.0,17_2_33_71660
3501,206.0,17_2_33_71693
3502,206.0,17_2_33_71710
3503,206.0,17_2_33_71726
3504,207.0,17_2_33_71743
3505,208.0,17_2_33_71777
3506,208.0,17_2_33_71794
3507,211.0,17_2_33_71810
3508,211.0,17_2_33_71826
3509,215.0,17_2_33_71861
3510,214.0,17_2_33_71876
3511,219.0,17_2_33_71894
3512,218.0,17_2_33_71910
3513,223.0,17_2_33_71926
3514,221.0,17_2_33_71944
3515,226.0,17_2_33_71977
3516,224.0,17_2_33_71994
3517,229.0,17_2_33_72010
3518,227.0,17_2_33_72026
3519,231.0,17_2_33_72060
3520,229.0,17_2_33_72076
3521,231.0,17_2_34_72093
3522,230.0,17_2_34_72110
3523,232.0,17_2_34_72143
3524,230.0,17_2_34_72159
3525,231.0,17_2_34_72178
3526,229.0,17_2_34_72193
3527,230.0,17_2_34_72210
3528,228.0,17_2_34_72226
3529,228.0,17_2_34_72260
3530,227.0,17_2_34_72277
3531,226.0,17_2_34_72294
3532,225.0,17_2_34_72310
3533,224.0,17_2_34_72343
3534,223.0,17_2_34_72360
3535,222.0,17_2_34_72377
3536,221.0,17_2_34_72393
3537,220.0,17_2_34_72427
3538,219.0,17_2_34_72443
3539,219.0,17_2_34_72460
3540,218.0,17_2_34_72476
3541,217.0,17_2_34_72494
3542,216.0,17_2_34_72510
3543,215.0,17_2_34_72544
3544,214.0,17_2_34_72560
3545,212.0,17_2_34_72577
3546,213.0,17_2_34_72594
3547,211.0,17_2_34_72627
3548,211.0,17_2_34_72643
3549,208.0,17_2_34_72660
3550,209.0,17_2_34_72677
3551,207.0,17_2_34_72711
3552,208.0,17_2_34_72727
3553,207.0,17_2_34_72743
3554,207.0,17_2_34_72760
3555,206.0,17_2_34_72794
3556,206.0,17_2_34_72810
3557,206.0,17_2_34_72826
3558,207.0,17_2_34_72843
3559,207.0,17_2_34_72877
3560,207.0,17_2_34_72893
3561,207.0,17_2_34_72910
3562,207.0,17_2_34_72926
3563,208.0,17_2_34_72944
3564,208.0,17_2_34_72960
3565,210.0,17_2_34_72994
3566,210.0,17_2_34_73010
3567,212.0,17_2_34_73027
3568,212.0,17_2_34_73043
3569,214.0,17_2_34_73076
3570,214.0,17_2_35_73094
3571,217.0,17_2_35_73110
3572,217.0,17_2_35_73126
3573,219.0,17_2_35_73144
3574,219.0,17_2_35_73160
3575,221.0,17_2_35_73194
3576,220.0,17_2_35_73210
3577,222.0,17_2_35_73226
3578,221.0,17_2_35_73243
3579,223.0,17_2_35_73277
3580,221.0,17_2_35_73293
3581,222.0,17_2_35_73310
3582,221.0,17_2_35_73326
3583,222.0,17_2_35_73360
3584,220.0,17_2_35_73377
3585,221.0,17_2_35_73394
3586,219.0,17_2_35_73410
3587,219.0,17_2_35_73426
3588,218.0,17_2_35_73444
3589,218.0,17_2_35_73477
3590,217.0,17_2_35_73493
3591,217.0,17_2_35_73510
3592,215.0,17_2_35_73526
3593,214.0,17_2_35_73560
3594,214.0,17_2_35_73577
3595,213.0,17_2_35_73593
3596,212.0,17_2_35_73610
3597,211.0,17_2_35_73643
3598,211.0,17_2_35_73660
3599,209.0,17_2_35_73677
3600,209.0,17_2_35_73693
3601,208.0,17_2_35_73726
3602,208.0,17_2_35_73744
3603,206.0,17_2_35_73762
3604,206.0,17_2_35_73777
3605,204.0,17_2_35_73810
3606,205.0,17_2_35_73827
3607,204.0,17_2_35_73844
3608,203.0,17_2_35_73860
3609,202.0,17_2_35_73877
3610,202.0,17_2_35_73893
3611,202.0,17_2_35_73927
3612,202.0,17_2_35_73943
3613,201.0,17_2_35_73960
3614,202.0,17_2_35_73977
3615,201.0,17_2_35_74010
3616,202.0,17_2_35_74027
3617,203.0,17_2_35_74044
3618,203.0,17_2_35_74060
3619,205.0,17_2_35_74077
3620,204.0,17_2_36_74093
3621,207.0,17_2_36_74127
3622,207.0,17_2_36_74143
3623,209.0,17_2_36_74161
3624,208.0,17_2_36_74177
3625,211.0,17_2_36_74211
3626,212.0,17_2_36_74227
3627,214.0,17_2_36_74244
3628,214.0,17_2_36_74260
3629,217.0,17_2_36_74293
3630,217.0,17_2_36_74310
3631,220.0,17_2_36_74327
3632,219.0,17_2_36_74343
3633,222.0,17_2_36_74377
3634,221.0,17_2_36_74393
3635,223.0,17_2_36_74411
3636,222.0,17_2_36_74427
3637,224.0,17_2_36_74444
3638,223.0,17_2_36_74460
3639,224.0,17_2_36_74494
3640,223.0,17_2_36_74510
3641,224.0,17_2_36_74526
3642,222.0,17_2_36_74544
3643,222.0,17_2_36_74577
3644,221.0,17_2_36_74593
3645,221.0,17_2_36_74610
3646,220.0,17_2_36_74627
3647,219.0,17_2_36_74661
3648,218.0,17_2_36_74677
3649,217.0,17_2_36_74693
3650,216.0,17_2_36_74710
3651,214.0,17_2_36_74743
3652,213.0,17_2_36_74760
3653,211.0,17_2_36_74777
3654,211.0,17_2_36_74794
3655,208.0,17_2_36_74827
3656,208.0,17_2_36_74844
3657,206.0,17_2_36_74860
3658,206.0,17_2_36_74876
3659,204.0,17_2_36_74893
3660,204.0,17_2_36_74910
3661,202.0,17_2_36_74943
3662,203.0,17_2_36_74960
3663,201.0,17_2_36_74977
3664,201.0,17_2_36_74993
3665,200.0,17_2_36_75027
3666,200.0,17_2_36_75043
3667,200.0,17_2_36_75060
3668,201.0,17_2_36_75077
3669,201.0,17_2_37_75111
3670,201.0,17_2_37_75127
3671,202.0,17_2_37_75144
3672,202.0,17_2_37_75160
3673,203.0,17_2_37_75177
3674,203.0,17_2_37_75193
3675,204.0,17_2_37_75227
3676,204.0,17_2_37_75244
3677,204.0,17_2_37_75260
3678,205.0,17_2_37_75277
3679,206.0,17_2_37_75310
3680,206.0,17_2_37_75327
3681,207.0,17_2_37_75343
3682,207.0,17_2_37_75360
3683,209.0,17_2_37_75393
3684,209.0,17_2_37_75410
3685,211.0,17_2_37_75427
3686,211.0,17_2_37_75443
3687,213.0,17_2_37_75461
3688,213.0,17_2_37_75477
3689,215.0,17_2_37_75510
3690,214.0,17_2_37_75526
3691,216.0,17_2_37_75543
3692,216.0,17_2_37_75560
3693,218.0,17_2_37_75594
3694,217.0,17_2_37_75610
3695,221.0,17_2_37_75627
3696,219.0,17_2_37_75644
3697,225.0,17_2_37_75677
3698,222.0,17_2_37_75693
3699,230.0,17_2_37_75710
3700,226.0,17_2_37_75727
3701,231.0,17_2_37_75760
3702,228.0,17_2_37_75776
3703,231.0,17_2_37_75794
3704,229.0,17_2_37_75810
3705,230.0,17_2_37_75827
3706,228.0,17_2_37_75843
3707,230.0,17_2_37_75877
3708,228.0,17_2_37_75893
3709,231.0,17_2_37_75911
3710,228.0,17_2_37_75927
3711,232.0,17_2_37_75961
3712,229.0,17_2_37_75977
3713,232.0,17_2_37_75994
3714,229.0,17_2_37_76010
3715,231.0,17_2_37_76044
3716,229.0,17_2_37_76060
3717,230.0,17_2_37_76077
3718,228.0,17_2_38_76093
3719,228.0,17_2_38_76111
3720,227.0,17_2_38_76127
3721,225.0,17_2_38_76160
3722,224.0,17_2_38_76177
3723,223.0,17_2_38_76193
3724,222.0,17_2_38_76210
3725,220.0,17_2_38_76244
3726,220.0,17_2_38_76260
3727,219.0,17_2_38_76276
3728,219.0,17_2_38_76294
3729,218.0,17_2_38_76327
3730,218.0,17_2_38_76344
3731,218.0,17_2_38_76360
3732,217.0,17_2_38_76376
3733,218.0,17_2_38_76410
3734,218.0,17_2_38_76426
3735,219.0,17_2_38_76445
3736,218.0,17_2_38_76460
3737,220.0,17_2_38_76477
3738,219.0,17_2_38_76494
3739,221.0,17_2_38_76527
3740,221.0,17_2_38_76544
3741,223.0,17_2_38_76560
3742,222.0,17_2_38_76577
3743,225.0,17_2_38_76611
3744,224.0,17_2_38_76627
3745,228.0,17_2_38_76644
3746,227.0,17_2_38_76661
3747,231.0,17_2_38_76694
3748,230.0,17_2_38_76710
3749,233.0,17_2_38_76727
3750,231.0,17_2_38_76743
3751,235.0,17_2_38_76778
3752,233.0,17_2_38_76794
3753,236.0,17_2_38_76811
3754,234.0,17_2_38_76827
3755,237.0,17_2_38_76843
3756,235.0,17_2_38_76860
3757,237.0,17_2_38_76894
3758,235.0,17_2_38_76910
3759,236.0,17_2_38_76927
3760,234.0,17_2_38_76943
3761,235.0,17_2_38_76977
3762,233.0,17_2_38_76994
3763,234.0,17_2_38_77010
3764,232.0,17_2_38_77026
3765,232.0,17_2_38_77044
3766,231.0,17_2_38_77060
3767,230.0,17_2_39_77095
3768,229.0,17_2_39_77110
3769,229.0,17_2_39_77127
3770,227.0,17_2_39_77144
3771,227.0,17_2_39_77177
3772,225.0,17_2_39_77193
3773,225.0,17_2_39_77210
3774,224.0,17_2_39_77227
3775,224.0,17_2_39_77261
3776,222.0,17_2_39_77277
3777,222.0,17_2_39_77294
3778,221.0,17_2_39_77310
3779,220.0,17_2_39_77343
3780,220.0,17_2_39_77361
3781,219.0,17_2_39_77377
3782,218.0,17_2_39_77393
3783,217.0,17_2_39_77411
3784,217.0,17_2_39_77427
3785,216.0,17_2_39_77460
3786,216.0,17_2_39_77477
3787,215.0,17_2_39_77493
3788,215.0,17_2_39_77510
3789,215.0,17_2_39_77543
3790,215.0,17_2_39_77561
3791,216.0,17_2_39_77577
3792,216.0,17_2_39_77593
3793,217.0,17_2_39_77627
3794,216.0,17_2_39_77644
3795,217.0,17_2_39_77660
3796,217.0,17_2_39_77676
3797,219.0,17_2_39_77710
3798,218.0,17_2_39_77726
3799,221.0,17_2_39_77744
3800,220.0,17_2_39_77760
3801,224.0,17_2_39_77777
3802,223.0,17_2_39_77794
3803,227.0,17_2_39_77827
3804,225.0,17_2_39_77843
3805,230.0,17_2_39_77860
3806,228.0,17_2_39_77877
3807,232.0,17_2_39_77910
3808,230.0,17_2_39_77927
3809,234.0,17_2_39_77944
3810,232.0,17_2_39_77960
3811,235.0,17_2_39_77977
3812,233.0,17_2_39_77993
3813,236.0,17_2_39_78028
3814,234.0,17_2_39_78044
3815,237.0,17_2_39_78060
3816,234.0,17_2_39_78077
3817,236.0,17_2_40_78111
3818,234.0,17_2_40_78127
3819,236.0,17_2_40_78144
3820,234.0,17_2_40_78160
3821,235.0,17_2_40_78193
3822,233.0,17_2_40_78210
3823,235.0,17_2_40_78227
3824,233.0,17_2_40_78243
3825,235.0,17_2_40_78277
3826,233.0,17_2_40_78293
3827,234.0,17_2_40_78310
3828,232.0,17_2_40_78326
3829,233.0,17_2_40_78361
3830,231.0,17_2_40_78376
3831,232.0,17_2_40_78394
3832,230.0,17_2_40_78410
3833,232.0,17_2_40_78427
3834,230.0,17_2_40_78444
3835,230.0,17_2_40_78477
3836,229.0,17_2_40_78493
3837,228.0,17_2_40_78510
3838,227.0,17_2_40_78527
3839,227.0,17_2_40_78560
3840,225.0,17_2_40_78577
3841,225.0,17_2_40_78593
3842,224.0,17_2_40_78610
3843,224.0,17_2_40_78644
3844,223.0,17_2_40_78661
3845,224.0,17_2_40_78677
3846,223.0,17_2_40_78694
3847,223.0,17_2_40_78710
3848,223.0,17_2_40_78727
3849,224.0,17_2_40_78760
3850,223.0,17_2_40_78777
3851,223.0,17_2_40_78794
3852,223.0,17_2_40_78810
3853,224.0,17_2_40_78843
3854,223.0,17_2_40_78860
3855,225.0,17_2_40_78877
3856,224.0,17_2_40_78893
3857,226.0,17_2_40_78927
3858,226.0,17_2_40_78943
3859,229.0,17_2_40_78961
3860,228.0,17_2_40_78977
3861,232.0,17_2_40_78994
3862,230.0,17_2_40_79010
3863,235.0,17_2_40_79043
3864,233.0,17_2_40_79060
3865,237.0,17_2_40_79077
3866,235.0,17_2_41_79094
3867,238.0,17_2_41_79127
3868,236.0,17_2_41_79144
3869,237.0,17_2_41_79160
3870,236.0,17_2_41_79177
3871,237.0,17_2_41_79211
3872,235.0,17_2_41_79227
3873,235.0,17_2_41_79244
3874,234.0,17_2_41_79260
3875,234.0,17_2_41_79294
3876,233.0,17_2_41_79311
3877,233.0,17_2_41_79327
3878,231.0,17_2_41_79344
3879,231.0,17_2_41_79377
3880,230.0,17_2_41_79394
3881,230.0,17_2_41_79411
3882,228.0,17_2_41_79427
3883,228.0,17_2_41_79444
3884,226.0,17_2_41_79460
3885,226.0,17_2_41_79494
3886,224.0,17_2_41_79510
3887,224.0,17_2_41_79527
3888,222.0,17_2_41_79544
3889,222.0,17_2_41_79578
3890,221.0,17_2_41_79594
3891,221.0,17_2_41_79610
3892,219.0,17_2_41_79627
3893,218.0,17_2_41_79661
3894,218.0,17_2_41_79677
3895,217.0,17_2_41_79694
3896,216.0,17_2_41_79710
3897,215.0,17_2_41_79727
3898,215.0,17_2_41_79743
3899,214.0,17_2_41_79777
3900,213.0,17_2_41_79793
3901,212.0,17_2_41_79810
3902,212.0,17_2_41_79827
3903,210.0,17_2_41_79861
3904,211.0,17_2_41_79877
3905,210.0,17_2_41_79894
3906,210.0,17_2_41_79910
3907,211.0,17_2_41_79927
3908,211.0,17_2_41_79943
3909,211.0,17_2_41_79977
3910,211.0,17_2_41_79993
3911,213.0,17_2_41_80011
3912,212.0,17_2_41_80027
3913,214.0,17_2_41_80060
3914,213.0,17_2_41_80077
3915,216.0,17_2_42_80094
3916,216.0,17_2_42_80110
3917,219.0,17_2_42_80143
3918,218.0,17_2_42_80160
3919,222.0,17_2_42_80178
3920,221.0,17_2_42_80194
3921,228.0,17_2_42_80227
3922,226.0,17_2_42_80243
3923,233.0,17_2_42_80260
3924,230.0,17_2_42_80277
3925,238.0,17_2_42_80310
3926,235.0,17_2_42_80326
3927,239.0,17_2_42_80344
3928,236.0,17_2_42_80361
3929,238.0,17_2_42_80394
3930,236.0,17_2_42_80410
3931,237.0,17_2_42_80427
3932,235.0,17_2_42_80444
3933,235.0,17_2_42_80461
3934,234.0,17_2_42_80477
3935,234.0,17_2_42_80511
3936,232.0,17_2_42_80527
3937,233.0,17_2_42_80544
3938,231.0,17_2_42_80561
3939,232.0,17_2_42_80594
3940,230.0,17_2_42_80611
3941,231.0,17_2_42_80627
3942,229.0,17_2_42_80644
3943,229.0,17_2_42_80660
3944,227.0,17_2_42_80677
3945,228.0,17_2_42_80711
3946,225.0,17_2_42_80728
3947,225.0,17_2_42_80744
3948,224.0,17_2_42_80761
3949,223.0,17_2_42_80795
3950,222.0,17_2_42_80810
3951,222.0,17_2_42_80827
3952,221.0,17_2_42_80844
3953,220.0,17_2_42_80877
3954,220.0,17_2_42_80894
3955,217.0,17_2_42_80911
3956,217.0,17_2_42_80927
3957,215.0,17_2_42_80944
3958,215.0,17_2_42_80960
3959,213.0,17_2_42_80994
3960,214.0,17_2_42_81010
3961,212.0,17_2_42_81027
3962,213.0,17_2_42_81044
3963,211.0,17_2_42_81078
3964,211.0,17_2_43_81094
3965,210.0,17_2_43_81111
3966,211.0,17_2_43_81127
3967,210.0,17_2_43_81161
3968,211.0,17_2_43_81177
3969,211.0,17_2_43_81194
3970,211.0,17_2_43_81210
3971,211.0,17_2_43_81244
3972,212.0,17_2_43_81260
3973,213.0,17_2_43_81278
3974,213.0,17_2_43_81294
3975,215.0,17_2_43_81328
3976,215.0,17_2_43_81344
3977,218.0,17_2_43_81360
3978,217.0,17_2_43_81377
3979,221.0,17_2_43_81394
3980,220.0,17_2_43_81410
3981,224.0,17_2_43_81444
3982,222.0,17_2_43_81460
3983,227.0,17_2_43_81477
3984,225.0,17_2_43_81494
3985,229.0,17_2_43_81527
3986,226.0,17_2_43_81544
3987,228.0,17_2_43_81561
3988,227.0,17_2_43_81577
3989,227.0,17_2_43_81611
3990,226.0,17_2_43_81627
3991,225.0,17_2_43_81644
3992,224.0,17_2_43_81661
3993,221.0,17_2_43_81678
3994,221.0,17_2_43_81694
3995,218.0,17_2_43_81728
3996,217.0,17_2_43_81744
3997,214.0,17_2_43_81760
3998,214.0,17_2_43_81777
3999,211.0,17_2_43_81810
4000,211.0,17_2_43_81828
4001,209.0,17_2_43_81844
4002,208.0,17_2_43_81861
4003,207.0,17_2_43_81894
4004,207.0,17_2_43_81911
4005,206.0,17_2_43_81927
4006,205.0,17_2_43_81944
4007,204.0,17_2_43_81962
4008,204.0,17_2_43_81978
4009,201.0,17_2_43_82010
4010,202.0,17_2_43_82027
4011,199.0,17_2_43_82044
4012,200.0,17_2_43_82061
4013,197.0,17_2_44_82094
4014,198.0,17_2_44_82111
4015,194.0,17_2_44_82128
4016,196.0,17_2_44_82144
4017,191.0,17_2_44_82177
4018,193.0,17_2_44_82194
4019,189.0,17_2_44_82210
4020,192.0,17_2_44_82228
4021,188.0,17_2_44_82261
4022,190.0,17_2_44_82278
4023,187.0,17_2_44_82295
4024,189.0,17_2_44_82311
4025,187.0,17_2_44_82328
4026,189.0,17_2_44_82344
4027,187.0,17_2_44_82377
4028,188.0,17_2_44_82394
4029,187.0,17_2_44_82411
4030,189.0,17_2_44_82427
4031,188.0,17_2_44_82461
4032,190.0,17_2_44_82477
4033,190.0,17_2_44_82495
4034,191.0,17_2_44_82511
4035,192.0,17_2_44_82544
4036,193.0,17_2_44_82561
4037,194.0,17_2_44_82578
4038,195.0,17_2_44_82594
4039,196.0,17_2_44_82611
4040,196.0,17_2_44_82627
4041,198.0,17_2_44_82660
4042,197.0,17_2_44_82678
4043,198.0,17_2_44_82694
4044,198.0,17_2_44_82711
4045,198.0,17_2_44_82744
4046,198.0,17_2_44_82761
4047,197.0,17_2_44_82777
4048,198.0,17_2_44_82794
4049,196.0,17_2_44_82827
4050,196.0,17_2_44_82844
4051,193.0,17_2_44_82862
4052,194.0,17_2_44_82877
4053,192.0,17_2_44_82894
4054,193.0,17_2_44_82911
4055,191.0,17_2_44_82944
4056,192.0,17_2_44_82960
4057,190.0,17_2_44_82977
4058,190.0,17_2_44_82994
4059,190.0,17_2_44_83028
4060,190.0,17_2_44_83044
4061,190.0,17_2_44_83061
4062,190.0,17_2_44_83078
4063,192.0,17_2_45_83111
4064,191.0,17_2_45_83128
4065,192.0,17_2_45_83145
4066,191.0,17_2_45_83160
4067,192.0,17_2_45_83194
4068,192.0,17_2_45_83211
4069,193.0,17_2_45_83227
4070,192.0,17_2_45_83244
4071,192.0,17_2_45_83277
4072,192.0,17_2_45_83294
4073,193.0,17_2_45_83311
4074,193.0,17_2_45_83328
4075,192.0,17_2_45_83344
4076,193.0,17_2_45_83361
4077,192.0,17_2_45_83395
4078,193.0,17_2_45_83411
4079,193.0,17_2_45_83427
4080,193.0,17_2_45_83444
4081,193.0,17_2_45_83478
4082,194.0,17_2_45_83494
4083,194.0,17_2_45_83511
4084,195.0,17_2_45_83527
4085,195.0,17_2_45_83544
4086,196.0,17_2_45_83561
4087,197.0,17_2_45_83594
4088,198.0,17_2_45_83610
4089,200.0,17_2_45_83628
4090,200.0,17_2_45_83644
4091,203.0,17_2_45_83678
4092,203.0,17_2_45_83694
4093,206.0,17_2_45_83711
4094,206.0,17_2_45_83727
4095,209.0,17_2_45_83762
4096,208.0,17_2_45_83778
4097,211.0,17_2_45_83794
4098,210.0,17_2_45_83811
4099,214.0,17_2_45_83844
4100,212.0,17_2_45_83860
4101,216.0,17_2_45_83878
4102,214.0,17_2_45_83894
4103,217.0,17_2_45_83911
4104,215.0,17_2_45_83928
4105,218.0,17_2_45_83961
4106,216.0,17_2_45_83978
4107,218.0,17_2_45_83994
4108,216.0,17_2_45_84011
4109,216.0,17_2_45_84045
4110,215.0,17_2_45_84060
4111,215.0,17_2_45_84077
4112,213.0,17_2_46_84094
4113,213.0,17_2_46_84127
4114,212.0,17_2_46_84145
4115,211.0,17_2_46_84161
4116,210.0,17_2_46_84178
4117,209.0,17_2_46_84210
4118,208.0,17_2_46_84227
4119,208.0,17_2_46_84244
4120,207.0,17_2_46_84261
4121,206.0,17_2_46_84277
4122,205.0,17_2_46_84294
4123,204.0,17_2_46_84328
4124,204.0,17_2_46_84344
4125,201.0,17_2_46_84361
4126,202.0,17_2_46_84378
4127,200.0,17_2_46_84410
4128,201.0,17_2_46_84428
4129,198.0,17_2_46_84444
4130,199.0,17_2_46_84461
4131,196.0,17_2_46_84494
4132,198.0,17_2_46_84511
4133,196.0,17_2_46_84528
4134,197.0,17_2_46_84544
4135,197.0,17_2_46_84561
4136,198.0,17_2_46_84577
4137,198.0,17_2_46_84612
4138,198.0,17_2_46_84627
4139,199.0,17_2_46_84644
4140,200.0,17_2_46_84661
4141,201.0,17_2_46_84694
4142,201.0,17_2_46_84711
4143,204.0,17_2_46_84727
4144,203.0,17_2_46_84744
4145,207.0,17_2_46_84778
4146,207.0,17_2_46_84794
4147,212.0,17_2_46_84811
4148,212.0,17_2_46_84827
4149,218.0,17_2_46_84861
4150,216.0,17_2_46_84878
4151,224.0,17_2_46_84895
4152,220.0,17_2_46_84910
4153,230.0,17_2_46_84928
4154,226.0,17_2_46_84944
4155,232.0,17_2_46_84978
4156,229.0,17_2_46_84994
4157,233.0,17_2_46_85011
4158,230.0,17_2_46_85028
4159,232.0,17_2_46_85061
4160,230.0,17_2_46_85078
4161,228.0,17_2_47_85094
4162,228.0,17_2_47_85111
4163,223.0,17_2_47_85144
4164,223.0,17_2_47_85161
4165,217.0,17_2_47_85178
4166,217.0,17_2_47_85194
4167,213.0,17_2_47_85211
4168,213.0,17_2_47_85228
4169,211.0,17_2_47_85260
4170,210.0,17_2_47_85277
4171,209.0,17_2_47_85294
4172,208.0,17_2_47_85311
4173,207.0,17_2_47_85345
4174,207.0,17_2_47_85360
4175,207.0,17_2_47_85378
4176,206.0,17_2_47_85394
4177,205.0,17_2_47_85427
4178,205.0,17_2_47_85444
4179,205.0,17_2_47_85462
4180,205.0,17_2_47_85477
4181,204.0,17_2_47_85494
4182,204.0,17_2_47_85510
4183,202.0,17_2_47_85544
4184,203.0,17_2_47_85561
4185,201.0,17_2_47_85578
4186,201.0,17_2_47_85594
4187,200.0,17_2_47_85627
4188,200.0,17_2_47_85645
4189,199.0,17_2_47_85661
4190,200.0,17_2_47_85677
4191,200.0,17_2_47_85710
4192,200.0,17_2_47_85727
4193,200.0,17_2_47_85746
4194,201.0,17_2_47_85761
4195,201.0,17_2_47_85794
4196,202.0,17_2_47_85811
4197,203.0,17_2_47_85828
4198,203.0,17_2_47_85844
4199,204.0,17_2_47_85877
4200,205.0,17_2_47_85894
4201,208.0,17_2_47_85910
4202,208.0,17_2_47_85928
4203,210.0,17_2_47_85944
4204,211.0,17_2_47_85961
4205,214.0,17_2_47_85994
4206,214.0,17_2_47_86011
4207,217.0,17_2_47_86028
4208,215.0,17_2_47_86044
4209,221.0,17_2_47_86078
4210,219.0,17_2_48_86095
4211,222.0,17_2_48_86111
4212,221.0,17_2_48_86128
4213,224.0,17_2_48_86161
4214,222.0,17_2_48_86178
4215,225.0,17_2_48_86194
4216,223.0,17_2_48_86211
4217,225.0,17_2_48_86228
4218,223.0,17_2_48_86244
4219,224.0,17_2_48_86277
4220,222.0,17_2_48_86294
4221,222.0,17_2_48_86311
4222,221.0,17_2_48_86328
4223,220.0,17_2_48_86361
4224,219.0,17_2_48_86378
4225,218.0,17_2_48_86395
4226,217.0,17_2_48_86411
4227,214.0,17_2_48_86444
4228,214.0,17_2_48_86461
4229,209.0,17_2_48_86478
4230,210.0,17_2_48_86495
4231,205.0,17_2_48_86511
4232,206.0,17_2_48_86527
4233,200.0,17_2_48_86561
4234,202.0,17_2_48_86578
4235,195.0,17_2_48_86595
4236,197.0,17_2_48_86611
4237,190.0,17_2_48_86645
4238,193.0,17_2_48_86661
4239,186.0,17_2_48_86678
4240,189.0,17_2_48_86694
4241,182.0,17_2_48_86727
4242,185.0,17_2_48_86744
4243,178.0,17_2_48_86762
4244,182.0,17_2_48_86777
4245,176.0,17_2_48_86811
4246,179.0,17_2_48_86828
4247,175.0,17_2_48_86844
4248,177.0,17_2_48_86861
4249,173.0,17_2_48_86878
4250,176.0,17_2_48_86894
4251,172.0,17_2_48_86927
4252,175.0,17_2_48_86945
4253,171.0,17_2_48_86961
4254,174.0,17_2_48_86978
4255,172.0,17_2_48_87011
4256,174.0,17_2_48_87028
4257,172.0,17_2_48_87045
4258,175.0,17_2_48_87061
4259,174.0,17_2_49_87094
4260,176.0,17_2_49_87111
4261,176.0,17_2_49_87127
4262,177.0,17_2_49_87144
4263,178.0,17_2_49_87179
4264,179.0,17_2_49_87194
4265,180.0,17_2_49_87211
4266,181.0,17_2_49_87227
4267,182.0,17_2_49_87245
4268,182.0,17_2_49_87260
4269,183.0,17_2_49_87294
4270,183.0,17_2_49_87311
4271,183.0,17_2_49_87327
4272,184.0,17_2_49_87344
4273,183.0,17_2_49_87378
4274,183.0,17_2_49_87394
4275,182.0,17_2_49_87411
4276,183.0,17_2_49_87428
4277,181.0,17_2_49_87445
4278,182.0,17_2_49_87461
4279,180.0,17_2_49_87494
4280,181.0,17_2_49_87510
4281,178.0,17_2_49_87527
4282,179.0,17_2_49_87544
4283,177.0,17_2_49_87578
4284,178.0,17_2_49_87594
4285,176.0,17_2_49_87611
4286,177.0,17_2_49_87628
4287,175.0,17_2_49_87661
4288,176.0,17_2_49_87677
4289,176.0,17_2_49_87694
4290,176.0,17_2_49_87711
4291,177.0,17_2_49_87745
4292,177.0,17_2_49_87761
4293,180.0,17_2_49_87777
4294,180.0,17_2_49_87794
4295,183.0,17_2_49_87827
4296,182.0,17_2_49_87844
4297,185.0,17_2_49_87861
4298,184.0,17_2_49_87878
4299,186.0,17_2_49_87895
4300,186.0,17_2_49_87911
4301,188.0,17_2_49_87944
4302,188.0,17_2_49_87961
4303,189.0,17_2_49_87978
4304,189.0,17_2_49_87994
4305,190.0,17_2_49_88028
4306,191.0,17_2_49_88044
4307,192.0,17_2_49_88061
4308,192.0,17_2_49_88077
4309,193.0,17_2_50_88111
4310,194.0,17_2_50_88128
4311,194.0,17_2_50_88144
4312,194.0,17_2_50_88161
4313,195.0,17_2_50_88177
4314,196.0,17_2_50_88194
4315,197.0,17_2_50_88227
4316,199.0,17_2_50_88245
4317,201.0,17_2_50_88261
4318,201.0,17_2_50_88278
4319,204.0,17_2_50_88312
4320,204.0,17_2_50_88327
4321,206.0,17_2_50_88344
4322,206.0,17_2_50_88361
4323,209.0,17_2_50_88395
4324,208.0,17_2_50_88411
4325,211.0,17_2_50_88428
4326,209.0,17_2_50_88444
4327,213.0,17_2_50_88461
4328,211.0,17_2_50_88478
4329,212.0,17_2_50_88511
4330,210.0,17_2_50_88527
4331,209.0,17_2_50_88545
4332,209.0,17_2_50_88561
4333,206.0,17_2_50_88595
4334,206.0,17_2_50_88611
4335,200.0,17_2_50_88628
4336,202.0,17_2_50_88644
4337,193.0,17_2_50_88678
4338,196.0,17_2_50_88695
4339,187.0,17_2_50_88711
4340,190.0,17_2_50_88727
4341,183.0,17_2_50_88761
4342,185.0,17_2_50_88778
4343,178.0,17_2_50_88795
4344,181.0,17_2_50_88811
4345,176.0,17_2_50_88846
4346,178.0,17_2_50_88861
4347,173.0,17_2_50_88878
4348,176.0,17_2_50_88894
4349,172.0,17_2_50_88911
4350,174.0,17_2_50_88928
4351,170.0,17_2_50_88961
4352,173.0,17_2_50_88978
4353,169.0,17_2_50_88995
4354,172.0,17_2_50_89011
4355,168.0,17_2_50_89045
4356,170.0,17_2_50_89061
4357,167.0,17_2_50_89078
4358,170.0,17_2_51_89094
4359,168.0,17_2_51_89112
4360,170.0,17_2_51_89128
4361,169.0,17_2_51_89161
4362,171.0,17_2_51_89178
4363,169.0,17_2_51_89195
4364,171.0,17_2_51_89211
4365,169.0,17_2_51_89245
4366,172.0,17_2_51_89261
4367,169.0,17_2_51_89277
4368,172.0,17_2_51_89294
4369,170.0,17_2_51_89328
4370,172.0,17_2_51_89345
4371,170.0,17_2_51_89362
4372,173.0,17_2_51_89377
4373,171.0,17_2_51_89395
4374,174.0,17_2_51_89411
4375,172.0,17_2_51_89444
4376,175.0,17_2_51_89461
4377,174.0,17_2_51_89478
4378,176.0,17_2_51_89494
4379,175.0,17_2_51_89528
4380,177.0,17_2_51_89545
4381,175.0,17_2_51_89562
4382,177.0,17_2_51_89578
4383,177.0,17_2_51_89611
4384,178.0,17_2_51_89628
4385,178.0,17_2_51_89646
4386,179.0,17_2_51_89661
4387,179.0,17_2_51_89695
4388,179.0,17_2_51_89711
4389,178.0,17_2_51_89728
4390,179.0,17_2_51_89745
4391,177.0,17_2_51_89778
4392,178.0,17_2_51_89794
4393,176.0,17_2_51_89811
4394,177.0,17_2_51_89828
4395,174.0,17_2_51_89844
4396,176.0,17_2_51_89861
4397,172.0,17_2_51_89894
4398,174.0,17_2_51_89911
4399,169.0,17_2_51_89929
4400,171.0,17_2_51_89944
4401,166.0,17_2_51_89978
4402,168.0,17_2_51_89995
4403,162.0,17_2_51_90011
4404,165.0,17_2_51_90028
4405,159.0,17_2_51_90045
4406,163.0,17_2_51_90061
4407,159.0,17_2_52_90095
4408,161.0,17_2_52_90111
4409,159.0,17_2_52_90128
4410,162.0,17_2_52_90144
4411,160.0,17_2_52_90178
4412,162.0,17_2_52_90194
4413,160.0,17_2_52_90212
4414,162.0,17_2_52_90227
4415,160.0,17_2_52_90261
4416,162.0,17_2_52_90277
4417,160.0,17_2_52_90294
4418,162.0,17_2_52_90311
4419,160.0,17_2_52_90345
4420,163.0,17_2_52_90361
4421,160.0,17_2_52_90377
4422,163.0,17_2_52_90399
4423,159.0,17_2_52_90417
4424,163.0,17_2_52_90433
4425,159.0,17_2_52_90471
4426,162.0,17_2_52_90483
4427,158.0,17_2_52_90500
4428,162.0,17_2_52_90516
4429,157.0,17_2_52_90533
4430,161.0,17_2_52_90549
4431,156.0,17_2_52_90583
4432,161.0,17_2_52_90599
4433,155.0,17_2_52_90616
4434,160.0,17_2_52_90633
4435,155.0,17_2_52_90666
4436,159.0,17_2_52_90683
4437,155.0,17_2_52_90699
4438,159.0,17_2_52_90716
4439,155.0,17_2_52_90751
4440,158.0,17_2_52_90766
4441,155.0,17_2_52_90782
4442,158.0,17_2_52_90800
4443,155.0,17_2_52_90832
4444,157.0,17_2_52_90850
4445,155.0,17_2_52_90866
4446,157.0,17_2_52_90883
4447,154.0,17_2_52_90899
4448,157.0,17_2_52_90916
4449,152.0,17_2_52_90950
4450,155.0,17_2_52_90966
4451,151.0,17_2_52_90983
4452,154.0,17_2_52_90999
4453,150.0,17_2_52_91034
4454,153.0,17_2_52_91050
4455,149.0,17_2_52_91066
4456,152.0,17_2_52_91083
4457,148.0,17_2_53_91116
4458,151.0,17_2_53_91133
4459,147.0,17_2_53_91149
4460,150.0,17_2_53_91166
4461,145.0,17_2_53_91200
4462,149.0,17_2_53_91216
4463,145.0,17_2_53_91233
4464,148.0,17_2_53_91249
4465,144.0,17_2_53_91267
4466,148.0,17_2_53_91282
4467,144.0,17_2_53_91316
4468,148.0,17_2_53_91333
4469,144.0,17_2_53_91349
4470,148.0,17_2_53_91366
4471,143.0,17_2_53_91399
4472,147.0,17_2_53_91416
4473,144.0,17_2_53_91434
4474,148.0,17_2_53_91449
4475,145.0,17_2_53_91466
4476,149.0,17_2_53_91483
4477,147.0,17_2_53_91516
4478,150.0,17_2_53_91532
4479,147.0,17_2_53_91551
4480,152.0,17_2_53_91566
4481,149.0,17_2_53_91600
4482,152.0,17_2_53_91616
4483,150.0,17_2_53_91633
4484,154.0,17_2_53_91650
4485,151.0,17_2_53_91683
4486,156.0,17_2_53_91700
4487,154.0,17_2_53_91716
4488,157.0,17_2_53_91733
4489,157.0,17_2_53_91767
4490,160.0,17_2_53_91783
4491,159.0,17_2_53_91800
4492,162.0,17_2_53_91816
4493,161.0,17_2_53_91850
4494,164.0,17_2_53_91866
4495,163.0,17_2_53_91883
4496,165.0,17_2_53_91899
4497,166.0,17_2_53_91916
4498,168.0,17_2_53_91932
4499,168.0,17_2_53_91967
4500,169.0,17_2_53_91983
4501,169.0,17_2_53_92000
4502,170.0,17_2_53_92016
4503,170.0,17_2_53_92050
4504,171.0,17_2_53_92068
4505,171.0,17_2_54_92084
4506,171.0,17_2_54_92100
4507,171.0,17_2_54_92133
4508,172.0,17_2_54_92150
4509,172.0,17_2_54_92166
4510,173.0,17_2_54_92183
4511,172.0,17_2_54_92199
4512,173.0,17_2_54_92216
4513,173.0,17_2_54_92250
4514,173.0,17_2_54_92266
4515,172.0,17_2_54_92283
4516,173.0,17_2_54_92300
4517,171.0,17_2_54_92334
4518,173.0,17_2_54_92350
4519,171.0,17_2_54_92367
4520,172.0,17_2_54_92383
4521,170.0,17_2_54_92400
4522,172.0,17_2_54_92416
4523,169.0,17_2_54_92449
4524,171.0,17_2_54_92466
4525,168.0,17_2_54_92483
4526,170.0,17_2_54_92500
4527,166.0,17_2_54_92533
4528,169.0,17_2_54_92549
4529,165.0,17_2_54_92566
4530,168.0,17_2_54_92583
4531,165.0,17_2_54_92617
4532,168.0,17_2_54_92633
4533,164.0,17_2_54_92650
4534,167.0,17_2_54_92666
4535,165.0,17_2_54_92700
4536,168.0,17_2_54_92716
4537,166.0,17_2_54_92733
4538,168.0,17_2_54_92749
4539,166.0,17_2_54_92783
4540,169.0,17_2_54_92799
4541,168.0,17_2_54_92817
4542,171.0,17_2_54_92833
4543,170.0,17_2_54_92867
4544,173.0,17_2_54_92883
4545,173.0,17_2_54_92899
4546,175.0,17_2_54_92916
4547,176.0,17_2_54_92933
4548,177.0,17_2_54_92950
4549,178.0,17_2_54_92983
4550,180.0,17_2_54_92999
4551,180.0,17_2_54_93016
4552,181.0,17_2_54_93033
4553,182.0,17_2_54_93066
4554,183.0,17_2_54_93083
4555,183.0,17_2_55_93099
4556,184.0,17_2_55_93116
4557,183.0,17_2_55_93150
4558,184.0,17_2_55_93166
4559,183.0,17_2_55_93183
4560,183.0,17_2_55_93199
4561,182.0,17_2_55_93216
4562,183.0,17_2_55_93233
4563,182.0,17_2_55_93266
4564,182.0,17_2_55_93283
4565,180.0,17_2_55_93300
4566,181.0,17_2_55_93316
4567,179.0,17_2_55_93350
4568,179.0,17_2_55_93366
4569,178.0,17_2_55_93383
4570,178.0,17_2_55_93400
4571,177.0,17_2_55_93416
4572,177.0,17_2_55_93433
4573,175.0,17_2_55_93466
4574,176.0,17_2_55_93483
4575,174.0,17_2_55_93500
4576,175.0,17_2_55_93517
4577,173.0,17_2_55_93549
4578,175.0,17_2_55_93566
4579,172.0,17_2_55_93583
4580,173.0,17_2_55_93600
4581,170.0,17_2_55_93633
4582,173.0,17_2_55_93650
4583,169.0,17_2_55_93667
4584,172.0,17_2_55_93683
4585,168.0,17_2_55_93717
4586,170.0,17_2_55_93733
4587,167.0,17_2_55_93750
4588,170.0,17_2_55_93767
4589,167.0,17_2_55_93800
4590,169.0,17_2_55_93816
4591,167.0,17_2_55_93833
4592,169.0,17_2_55_93850
4593,167.0,17_2_55_93867
4594,169.0,17_2_55_93883
4595,167.0,17_2_55_93917
4596,170.0,17_2_55_93933
4597,168.0,17_2_55_93950
4598,171.0,17_2_55_93966
4599,170.0,17_2_55_94000
4600,173.0,17_2_55_94016
4601,172.0,17_2_55_94033
4602,175.0,17_2_55_94050
4603,175.0,17_2_55_94083
4604,177.0,17_2_56_94100
4605,178.0,17_2_56_94116
4606,179.0,17_2_56_94133
4607,181.0,17_2_56_94150
4608,181.0,17_2_56_94166
4609,182.0,17_2_56_94200
4610,183.0,17_2_56_94217
4611,184.0,17_2_56_94233
4612,184.0,17_2_56_94249
4613,185.0,17_2_56_94283
4614,185.0,17_2_56_94300
4615,185.0,17_2_56_94316
4616,186.0,17_2_56_94333
4617,186.0,17_2_56_94366
4618,185.0,17_2_56_94383
4619,184.0,17_2_56_94400
4620,185.0,17_2_56_94417
4621,183.0,17_2_56_94434
4622,184.0,17_2_56_94449
4623,181.0,17_2_56_94483
4624,182.0,17_2_56_94500
4625,178.0,17_2_56_94516
4626,180.0,17_2_56_94533
4627,177.0,17_2_56_94566
4628,178.0,17_2_56_94583
4629,175.0,17_2_56_94600
4630,176.0,17_2_56_94616
4631,173.0,17_2_56_94650
4632,174.0,17_2_56_94666
4633,171.0,17_2_56_94684
4634,173.0,17_2_56_94700
4635,170.0,17_2_56_94733
4636,172.0,17_2_56_94750
4637,168.0,17_2_56_94767
4638,170.0,17_2_56_94783
4639,167.0,17_2_56_94816
4640,169.0,17_2_56_94833
4641,166.0,17_2_56_94850
4642,168.0,17_2_56_94866
4643,164.0,17_2_56_94883
4644,167.0,17_2_56_94900
4645,163.0,17_2_56_94933
4646,166.0,17_2_56_94949
4647,162.0,17_2_56_94966
4648,166.0,17_2_56_94983
4649,163.0,17_2_56_95016
4650,166.0,17_2_56_95033
4651,163.0,17_2_56_95050
4652,166.0,17_2_56_95066
4653,164.0,17_2_56_95083
4654,167.0,17_2_57_95100
4655,165.0,17_2_57_95133
4656,168.0,17_2_57_95150
4657,166.0,17_2_57_95167
4658,169.0,17_2_57_95183
4659,168.0,17_2_57_95217
4660,171.0,17_2_57_95233
4661,171.0,17_2_57_95250
4662,173.0,17_2_57_95267
4663,174.0,17_2_57_95300
4664,176.0,17_2_57_95317
4665,177.0,17_2_57_95333
4666,178.0,17_2_57_95350
4667,178.0,17_2_57_95383
4668,180.0,17_2_57_95400
4669,180.0,17_2_57_95416
4670,181.0,17_2_57_95433
4671,181.0,17_2_57_95451
4672,181.0,17_2_57_95467
4673,182.0,17_2_57_95500
4674,182.0,17_2_57_95516
4675,181.0,17_2_57_95533
4676,182.0,17_2_57_95550
4677,181.0,17_2_57_95583
4678,181.0,17_2_57_95600
4679,180.0,17_2_57_95617
4680,180.0,17_2_57_95633
4681,178.0,17_2_57_95666
4682,179.0,17_2_57_95683
4683,177.0,17_2_57_95701
4684,178.0,17_2_57_95716
4685,175.0,17_2_57_95750
4686,176.0,17_2_57_95766
4687,174.0,17_2_57_95783
4688,176.0,17_2_57_95799
4689,173.0,17_2_57_95816
4690,174.0,17_2_57_95833
4691,171.0,17_2_57_95867
4692,173.0,17_2_57_95883
4693,170.0,17_2_57_95900
4694,172.0,17_2_57_95916
4695,169.0,17_2_57_95950
4696,171.0,17_2_57_95966
4697,168.0,17_2_57_95984
4698,170.0,17_2_57_96000
4699,166.0,17_2_57_96033
4700,169.0,17_2_57_96049
4701,165.0,17_2_57_96066
4702,167.0,17_2_57_96083
4703,164.0,17_2_58_96099
4704,166.0,17_2_58_96116
4705,163.0,17_2_58_96150
4706,166.0,17_2_58_96167
4707,163.0,17_2_58_96183
4708,166.0,17_2_58_96200
4709,163.0,17_2_58_96233
4710,166.0,17_2_58_96250
4711,165.0,17_2_58_96266
4712,167.0,17_2_58_96283
4713,165.0,17_2_58_96317
4714,168.0,17_2_58_96333
4715,166.0,17_2_58_96350
4716,169.0,17_2_58_96367
4717,168.0,17_2_58_96383
4718,171.0,17_2_58_96399
4719,170.0,17_2_58_96434
4720,173.0,17_2_58_96449
4721,173.0,17_2_58_96468
4722,175.0,17_2_58_96483
4723,176.0,17_2_58_96516
4724,177.0,17_2_58_96533
4725,178.0,17_2_58_96550
4726,180.0,17_2_58_96567
4727,180.0,17_2_58_96600
4728,181.0,17_2_58_96616
4729,182.0,17_2_58_96633
4730,183.0,17_2_58_96650
4731,182.0,17_2_58_96683
4732,183.0,17_2_58_96700
4733,183.0,17_2_58_96718
4734,183.0,17_2_58_96733
4735,182.0,17_2_58_96767
4736,183.0,17_2_58_96783
4737,181.0,17_2_58_96800
4738,182.0,17_2_58_96816
4739,180.0,17_2_58_96833
4740,181.0,17_2_58_96850
4741,179.0,17_2_58_96884
4742,180.0,17_2_58_96900
4743,177.0,17_2_58_96917
4744,179.0,17_2_58_96933
4745,176.0,17_2_58_96967
4746,177.0,17_2_58_96983
4747,175.0,17_2_58_97001
4748,175.0,17_2_58_97016
4749,173.0,17_2_58_97033
4750,175.0,17_2_58_97049
4751,172.0,17_2_58_97083
4752,174.0,17_2_59_97099
4753,171.0,17_2_59_97116
4754,173.0,17_2_59_97133
4755,169.0,17_2_59_97166
4756,172.0,17_2_59_97183
4757,168.0,17_2_59_97199
4758,171.0,17_2_59_97216
4759,168.0,17_2_59_97251
4760,170.0,17_2_59_97266
4761,166.0,17_2_59_97283
4762,169.0,17_2_59_97300
4763,165.0,17_2_59_97334
4764,168.0,17_2_59_97350
4765,164.0,17_2_59_97367
4766,167.0,17_2_59_97383
4767,164.0,17_2_59_97400
4768,167.0,17_2_59_97416
4769,164.0,17_2_59_97449
4770,167.0,17_2_59_97466
4771,164.0,17_2_59_97484
4772,167.0,17_2_59_97500
4773,166.0,17_2_59_97534
4774,168.0,17_2_59_97550
4775,167.0,17_2_59_97567
4776,170.0,17_2_59_97584
4777,169.0,17_2_59_97617
4778,171.0,17_2_59_97633
4779,171.0,17_2_59_97650
4780,174.0,17_2_59_97666
4781,175.0,17_2_59_97700
4782,176.0,17_2_59_97717
4783,177.0,17_2_59_97734
4784,179.0,17_2_59_97750
4785,179.0,17_2_59_97767
4786,181.0,17_2_59_97783
4787,181.0,17_2_59_97817
4788,182.0,17_2_59_97833
4789,182.0,17_2_59_97850
4790,183.0,17_2_59_97867
4791,184.0,17_2_59_97899
4792,184.0,17_2_59_97917
4793,184.0,17_2_59_97934
4794,184.0,17_2_59_97949
4795,183.0,17_2_59_97984
4796,184.0,17_2_59_98000
4797,182.0,17_2_59_98017
4798,183.0,17_2_59_98033
4799,182.0,17_2_59_98050
4800,182.0,17_2_59_98067
4801,180.0,17_3_0_98100
4802,181.0,17_3_0_98117
4803,179.0,17_3_0_98134
4804,180.0,17_3_0_98150
4805,178.0,17_3_0_98184
4806,179.0,17_3_0_98200
4807,176.0,17_3_0_98218
4808,177.0,17_3_0_98233
4809,175.0,17_3_0_98266
4810,176.0,17_3_0_98283
4811,174.0,17_3_0_98299
4812,175.0,17_3_0_98316
4813,172.0,17_3_0_98350
4814,174.0,17_3_0_98367
4815,171.0,17_3_0_98383
4816,173.0,17_3_0_98400
4817,170.0,17_3_0_98416
4818,172.0,17_3_0_98433
4819,169.0,17_3_0_98466
4820,171.0,17_3_0_98483
4821,168.0,17_3_0_98501
4822,171.0,17_3_0_98517
4823,167.0,17_3_0_98550
4824,170.0,17_3_0_98566
4825,167.0,17_3_0_98583
4826,169.0,17_3_0_98600
4827,166.0,17_3_0_98634
4828,169.0,17_3_0_98650
4829,167.0,17_3_0_98667
4830,170.0,17_3_0_98683
4831,168.0,17_3_0_98700
4832,171.0,17_3_0_98717
4833,169.0,17_3_0_98750
4834,171.0,17_3_0_98766
4835,170.0,17_3_0_98783
4836,173.0,17_3_0_98800
4837,172.0,17_3_0_98833
4838,174.0,17_3_0_98850
4839,175.0,17_3_0_98867
4840,176.0,17_3_0_98883
4841,177.0,17_3_0_98900
4842,178.0,17_3_0_98916
4843,180.0,17_3_0_98950
4844,181.0,17_3_0_98966
4845,182.0,17_3_0_98984
4846,183.0,17_3_0_99000
4847,184.0,17_3_0_99033
4848,184.0,17_3_0_99050
4849,185.0,17_3_0_99067
4850,185.0,17_3_0_99083
4851,185.0,17_3_1_99117
4852,186.0,17_3_1_99134
4853,185.0,17_3_1_99150
4854,186.0,17_3_1_99166
4855,186.0,17_3_1_99199
4856,185.0,17_3_1_99217
4857,184.0,17_3_1_99233
4858,185.0,17_3_1_99250
4859,183.0,17_3_1_99283
4860,184.0,17_3_1_99300
4861,182.0,17_3_1_99317
4862,182.0,17_3_1_99333
4863,180.0,17_3_1_99367
4864,181.0,17_3_1_99384
4865,179.0,17_3_1_99400
4866,180.0,17_3_1_99416
4867,177.0,17_3_1_99434
4868,179.0,17_3_1_99450
4869,176.0,17_3_1_99484
4870,177.0,17_3_1_99499
4871,175.0,17_3_1_99516
4872,176.0,17_3_1_99533
4873,174.0,17_3_1_99567
4874,175.0,17_3_1_99584
4875,173.0,17_3_1_99600
4876,174.0,17_3_1_99617
4877,171.0,17_3_1_99634
4878,173.0,17_3_1_99650
4879,170.0,17_3_1_99683
4880,172.0,17_3_1_99700
4881,168.0,17_3_1_99718
4882,172.0,17_3_1_99734
4883,167.0,17_3_1_99767
4884,170.0,17_3_1_99783
4885,167.0,17_3_1_99800
