position,GSR_Reading,Time_Stamp
0,NaN,16_46_59_1892
1,600.0,16_46_59_1941
2,598.0,16_46_59_1973
3,596.0,16_47_0_2007
4,594.0,16_47_0_2057
5,592.0,16_47_0_2090
6,590.0,16_47_0_2140
7,588.0,16_47_0_2173
8,586.0,16_47_0_2223
9,584.0,16_47_0_2257
10,582.0,16_47_0_2290
11,581.0,16_47_0_2340
12,579.0,16_47_0_2374
13,578.0,16_47_0_2423
14,576.0,16_47_0_2457
15,575.0,16_47_0_2490
16,573.0,16_47_0_2541
17,571.0,16_47_0_2574
18,569.0,16_47_0_2624
19,567.0,16_47_0_2657
20,565.0,16_47_0_2706
21,563.0,16_47_0_2740
22,560.0,16_47_0_2774
23,558.0,16_47_0_2824
24,556.0,16_47_0_2857
25,553.0,16_47_0_2906
26,550.0,16_47_0_2939
27,548.0,16_47_0_2989
28,615.0,16_47_1_3024
29,641.0,16_47_1_3057
30,651.0,16_47_1_3107
31,655.0,16_47_1_3140
32,656.0,16_47_1_3190
33,657.0,16_47_1_3224
34,657.0,16_47_1_3274
35,657.0,16_47_1_3307
36,656.0,16_47_1_3356
37,657.0,16_47_1_3390
38,657.0,16_47_1_3440
39,657.0,16_47_1_3473
40,657.0,16_47_1_3507
41,658.0,16_47_1_3557
42,658.0,16_47_1_3590
43,659.0,16_47_1_3640
44,659.0,16_47_1_3673
45,659.0,16_47_1_3707
46,660.0,16_47_1_3757
47,659.0,16_47_1_3789
48,656.0,16_47_1_3840
49,654.0,16_47_1_3873
50,652.0,16_47_1_3924
51,650.0,16_47_1_3957
52,647.0,16_47_1_3990
53,645.0,16_47_2_4040
54,643.0,16_47_2_4073
55,641.0,16_47_2_4123
56,639.0,16_47_2_4157
57,637.0,16_47_2_4190
58,635.0,16_47_2_4240
59,633.0,16_47_2_4273
60,632.0,16_47_2_4323
61,630.0,16_47_2_4357
62,628.0,16_47_2_4407
63,626.0,16_47_2_4440
64,624.0,16_47_2_4473
65,622.0,16_47_2_4524
66,620.0,16_47_2_4557
67,617.0,16_47_2_4607
68,615.0,16_47_2_4640
69,612.0,16_47_2_4690
70,609.0,16_47_2_4723
71,607.0,16_47_2_4756
72,604.0,16_47_2_4807
73,601.0,16_47_2_4840
74,598.0,16_47_2_4890
75,634.0,16_47_2_4923
76,648.0,16_47_2_4973
77,654.0,16_47_3_5007
78,655.0,16_47_3_5040
79,656.0,16_47_3_5090
80,657.0,16_47_3_5123
81,657.0,16_47_3_5173
82,657.0,16_47_3_5207
83,656.0,16_47_3_5256
84,656.0,16_47_3_5289
85,656.0,16_47_3_5340
86,657.0,16_47_3_5373
87,657.0,16_47_3_5406
88,657.0,16_47_3_5457
89,658.0,16_47_3_5489
90,658.0,16_47_3_5540
91,659.0,16_47_3_5573
92,659.0,16_47_3_5607
93,660.0,16_47_3_5657
94,657.0,16_47_3_5690
95,656.0,16_47_3_5740
96,654.0,16_47_3_5773
97,652.0,16_47_3_5823
98,650.0,16_47_3_5856
99,647.0,16_47_3_5890
100,645.0,16_47_3_5940
101,643.0,16_47_3_5973
102,641.0,16_47_4_6023
103,638.0,16_47_4_6057
104,636.0,16_47_4_6108
105,635.0,16_47_4_6140
106,633.0,16_47_4_6173
107,631.0,16_47_4_6223
108,629.0,16_47_4_6257
109,628.0,16_47_4_6307
110,624.0,16_47_4_6340
111,622.0,16_47_4_6373
112,620.0,16_47_4_6423
113,618.0,16_47_4_6457
114,616.0,16_47_4_6506
115,613.0,16_47_4_6541
116,611.0,16_47_4_6590
117,608.0,16_47_4_6624
118,606.0,16_47_4_6657
119,603.0,16_47_4_6706
120,600.0,16_47_4_6741
121,598.0,16_47_4_6790
122,595.0,16_47_4_6824
123,592.0,16_47_4_6857
124,589.0,16_47_4_6907
125,631.0,16_47_4_6940
126,647.0,16_47_4_6990
127,654.0,16_47_5_7023
128,656.0,16_47_5_7074
129,657.0,16_47_5_7107
130,657.0,16_47_5_7158
131,657.0,16_47_5_7190
132,657.0,16_47_5_7240
133,657.0,16_47_5_7273
134,657.0,16_47_5_7307
135,657.0,16_47_5_7356
136,657.0,16_47_5_7390
137,658.0,16_47_5_7440
138,658.0,16_47_5_7473
139,659.0,16_47_5_7507
140,659.0,16_47_5_7556
141,659.0,16_47_5_7590
142,659.0,16_47_5_7640
143,659.0,16_47_5_7674
144,658.0,16_47_5_7724
145,656.0,16_47_5_7756
146,654.0,16_47_5_7807
147,651.0,16_47_5_7840
148,649.0,16_47_5_7873
149,647.0,16_47_5_7924
150,645.0,16_47_5_7957
151,643.0,16_47_6_8007
152,641.0,16_47_6_8040
153,640.0,16_47_6_8073
154,638.0,16_47_6_8124
155,636.0,16_47_6_8158
156,634.0,16_47_6_8207
157,632.0,16_47_6_8240
158,630.0,16_47_6_8274
159,628.0,16_47_6_8323
160,626.0,16_47_6_8356
161,624.0,16_47_6_8406
162,621.0,16_47_6_8440
163,619.0,16_47_6_8491
164,616.0,16_47_6_8524
165,613.0,16_47_6_8573
166,610.0,16_47_6_8606
167,607.0,16_47_6_8640
168,604.0,16_47_6_8691
169,600.0,16_47_6_8723
170,635.0,16_47_6_8773
171,649.0,16_47_6_8806
172,654.0,16_47_6_8841
173,657.0,16_47_6_8890
174,657.0,16_47_6_8923
175,657.0,16_47_6_8973
176,657.0,16_47_7_9007
177,657.0,16_47_7_9057
178,657.0,16_47_7_9090
179,657.0,16_47_7_9140
180,657.0,16_47_7_9173
181,657.0,16_47_7_9224
182,658.0,16_47_7_9257
183,658.0,16_47_7_9290
184,659.0,16_47_7_9340
185,659.0,16_47_7_9373
186,659.0,16_47_7_9423
187,659.0,16_47_7_9457
188,657.0,16_47_7_9490
189,656.0,16_47_7_9540
190,654.0,16_47_7_9573
191,652.0,16_47_7_9624
192,649.0,16_47_7_9657
193,647.0,16_47_7_9707
194,645.0,16_47_7_9740
195,643.0,16_47_7_9773
196,641.0,16_47_7_9823
197,639.0,16_47_7_9856
198,636.0,16_47_7_9907
199,635.0,16_47_7_9940
200,633.0,16_47_7_9974
201,631.0,16_47_8_10024
202,630.0,16_47_8_10057
203,628.0,16_47_8_10107
204,626.0,16_47_8_10140
205,624.0,16_47_8_10190
206,622.0,16_47_8_10224
207,620.0,16_47_8_10257
208,617.0,16_47_8_10307
209,615.0,16_47_8_10340
210,612.0,16_47_8_10391
211,609.0,16_47_8_10424
212,607.0,16_47_8_10457
213,604.0,16_47_8_10507
214,601.0,16_47_8_10540
215,598.0,16_47_8_10590
216,634.0,16_47_8_10623
217,648.0,16_47_8_10673
218,654.0,16_47_8_10707
219,656.0,16_47_8_10757
220,657.0,16_47_8_10790
221,657.0,16_47_8_10824
222,657.0,16_47_8_10874
223,657.0,16_47_8_10906
224,656.0,16_47_8_10957
225,656.0,16_47_8_10990
226,657.0,16_47_9_11040
227,657.0,16_47_9_11073
228,657.0,16_47_9_11123
229,658.0,16_47_9_11157
230,658.0,16_47_9_11190
231,659.0,16_47_9_11240
232,659.0,16_47_9_11273
233,659.0,16_47_9_11324
234,660.0,16_47_9_11357
235,659.0,16_47_9_11407
236,657.0,16_47_9_11440
237,655.0,16_47_9_11473
238,652.0,16_47_9_11524
239,650.0,16_47_9_11557
240,648.0,16_47_9_11606
241,646.0,16_47_9_11641
242,644.0,16_47_9_11674
243,641.0,16_47_9_11724
244,639.0,16_47_9_11757
245,638.0,16_47_9_11807
246,636.0,16_47_9_11840
247,634.0,16_47_9_11891
248,633.0,16_47_9_11924
249,631.0,16_47_9_11957
250,629.0,16_47_10_12007
251,627.0,16_47_10_12040
252,625.0,16_47_10_12090
253,622.0,16_47_10_12123
254,620.0,16_47_10_12157
255,617.0,16_47_10_12207
256,614.0,16_47_10_12240
257,612.0,16_47_10_12290
258,609.0,16_47_10_12324
259,606.0,16_47_10_12373
260,603.0,16_47_10_12407
261,600.0,16_47_10_12440
262,635.0,16_47_10_12490
263,649.0,16_47_10_12523
264,654.0,16_47_10_12573
265,656.0,16_47_10_12607
266,657.0,16_47_10_12657
267,657.0,16_47_10_12690
268,657.0,16_47_10_12964
269,656.0,16_47_11_13040
270,656.0,16_47_11_13081
271,656.0,16_47_11_13097
272,657.0,16_47_11_13114
273,657.0,16_47_11_13131
274,657.0,16_47_11_13147
275,658.0,16_47_11_13164
276,658.0,16_47_11_13180
277,658.0,16_47_11_13197
278,659.0,16_47_11_13214
279,660.0,16_47_11_13231
280,659.0,16_47_11_13248
281,657.0,16_47_11_13264
282,654.0,16_47_11_13297
283,652.0,16_47_11_13333
284,650.0,16_47_11_13382
285,648.0,16_47_11_13416
286,646.0,16_47_11_13466
287,643.0,16_47_11_13499
288,641.0,16_47_11_13549
289,639.0,16_47_11_13582
290,637.0,16_47_11_13616
291,636.0,16_47_11_13666
292,634.0,16_47_11_13699
293,633.0,16_47_11_13749
294,631.0,16_47_11_13782
295,629.0,16_47_11_13832
296,627.0,16_47_11_13866
297,625.0,16_47_11_13899
298,622.0,16_47_11_13949
299,620.0,16_47_11_13983
300,617.0,16_47_12_14032
301,614.0,16_47_12_14066
302,612.0,16_47_12_14098
303,609.0,16_47_12_14149
304,606.0,16_47_12_14182
305,602.0,16_47_12_14232
306,636.0,16_47_12_14266
307,649.0,16_47_12_14299
308,654.0,16_47_12_14349
309,656.0,16_47_12_14382
310,657.0,16_47_12_14432
311,658.0,16_47_12_14466
312,657.0,16_47_12_14516
313,657.0,16_47_12_14550
314,656.0,16_47_12_14599
315,656.0,16_47_12_14632
316,657.0,16_47_12_14682
317,657.0,16_47_12_14715
318,658.0,16_47_12_14749
319,658.0,16_47_12_14799
320,658.0,16_47_12_14832
321,659.0,16_47_12_14882
322,659.0,16_47_12_14915
323,660.0,16_47_12_14966
324,659.0,16_47_13_14999
325,657.0,16_47_13_15049
326,655.0,16_47_13_15083
327,653.0,16_47_13_15116
328,650.0,16_47_13_15166
329,648.0,16_47_13_15199
330,646.0,16_47_13_15249
331,644.0,16_47_13_15282
332,642.0,16_47_13_15316
333,640.0,16_47_13_15365
334,638.0,16_47_13_15399
335,636.0,16_47_13_15449
336,635.0,16_47_13_15483
337,633.0,16_47_13_15516
338,631.0,16_47_13_15566
339,629.0,16_47_13_15599
340,627.0,16_47_13_15649
341,625.0,16_47_13_15682
342,623.0,16_47_13_15733
343,620.0,16_47_13_15766
344,617.0,16_47_13_15799
345,615.0,16_47_13_15849
346,612.0,16_47_13_15882
347,609.0,16_47_13_15932
348,606.0,16_47_13_15966
349,601.0,16_47_14_15999
350,636.0,16_47_14_16049
351,649.0,16_47_14_16082
352,654.0,16_47_14_16132
353,656.0,16_47_14_16165
354,657.0,16_47_14_16215
355,657.0,16_47_14_16249
356,657.0,16_47_14_16299
357,657.0,16_47_14_16332
358,656.0,16_47_14_16366
359,656.0,16_47_14_16416
360,657.0,16_47_14_16449
361,657.0,16_47_14_16499
362,658.0,16_47_14_16532
363,659.0,16_47_14_16582
364,659.0,16_47_14_16616
365,659.0,16_47_14_16665
366,660.0,16_47_14_16699
367,662.0,16_47_14_16732
368,660.0,16_47_14_16782
369,657.0,16_47_14_16815
370,655.0,16_47_14_16866
371,653.0,16_47_14_16899
372,650.0,16_47_14_16949
373,648.0,16_47_14_16982
374,646.0,16_47_15_17016
375,644.0,16_47_15_17065
376,642.0,16_47_15_17099
377,640.0,16_47_15_17149
378,639.0,16_47_15_17182
379,637.0,16_47_15_17216
380,635.0,16_47_15_17266
381,633.0,16_47_15_17299
382,631.0,16_47_15_17349
383,629.0,16_47_15_17383
384,627.0,16_47_15_17433
385,625.0,16_47_15_17466
386,622.0,16_47_15_17499
387,619.0,16_47_15_17549
388,617.0,16_47_15_17582
389,614.0,16_47_15_17633
390,611.0,16_47_15_17666
391,608.0,16_47_15_17699
392,603.0,16_47_15_17749
393,637.0,16_47_15_17782
394,649.0,16_47_15_17833
395,654.0,16_47_15_17866
396,656.0,16_47_15_17899
397,657.0,16_47_15_17949
398,657.0,16_47_15_17982
399,657.0,16_47_16_18033
400,657.0,16_47_16_18066
401,657.0,16_47_16_18116
402,657.0,16_47_16_18149
403,657.0,16_47_16_18199
404,657.0,16_47_16_18232
405,658.0,16_47_16_18282
406,658.0,16_47_16_18316
407,659.0,16_47_16_18349
408,659.0,16_47_16_18399
409,659.0,16_47_16_18433
410,660.0,16_47_16_18483
411,659.0,16_47_16_18516
412,657.0,16_47_16_18566
413,655.0,16_47_16_18599
414,652.0,16_47_16_18633
415,650.0,16_47_16_18682
416,648.0,16_47_16_18716
417,646.0,16_47_16_18766
418,643.0,16_47_16_18800
419,642.0,16_47_16_18849
420,640.0,16_47_16_18883
421,638.0,16_47_16_18916
422,636.0,16_47_16_18966
423,634.0,16_47_17_19000
424,632.0,16_47_17_19050
425,630.0,16_47_17_19082
426,627.0,16_47_17_19116
427,625.0,16_47_17_19166
428,622.0,16_47_17_19199
429,620.0,16_47_17_19249
430,617.0,16_47_17_19282
431,614.0,16_47_17_19333
432,612.0,16_47_17_19366
433,609.0,16_47_17_19399
434,606.0,16_47_17_19449
435,603.0,16_47_17_19482
436,637.0,16_47_17_19532
437,649.0,16_47_17_19566
438,654.0,16_47_17_19616
439,656.0,16_47_17_19649
440,657.0,16_47_17_19683
441,657.0,16_47_17_19733
442,657.0,16_47_17_19766
443,657.0,16_47_17_19816
444,656.0,16_47_17_19849
445,656.0,16_47_17_19899
446,657.0,16_47_17_19933
447,658.0,16_47_17_19966
448,659.0,16_47_18_20016
449,658.0,16_47_18_20049
450,658.0,16_47_18_20099
451,658.0,16_47_18_20133
452,659.0,16_47_18_20182
453,659.0,16_47_18_20216
454,660.0,16_47_18_20249
455,659.0,16_47_18_20299
456,657.0,16_47_18_20332
457,655.0,16_47_18_20383
458,653.0,16_47_18_20417
459,650.0,16_47_18_20466
460,648.0,16_47_18_20499
461,646.0,16_47_18_20533
462,644.0,16_47_18_20582
463,642.0,16_47_18_20616
464,640.0,16_47_18_20666
465,638.0,16_47_18_20699
466,636.0,16_47_18_20749
467,634.0,16_47_18_20782
468,632.0,16_47_18_20816
469,630.0,16_47_18_20866
470,628.0,16_47_18_20899
471,626.0,16_47_18_20949
472,623.0,16_47_18_20982
473,620.0,16_47_19_21032
474,618.0,16_47_19_21066
475,615.0,16_47_19_21099
476,613.0,16_47_19_21150
477,610.0,16_47_19_21183
478,604.0,16_47_19_21232
479,605.0,16_47_19_21266
480,595.0,16_47_19_21315
481,635.0,16_47_19_21350
482,649.0,16_47_19_21383
483,654.0,16_47_19_21433
484,656.0,16_47_19_21466
485,657.0,16_47_19_21516
486,656.0,16_47_19_21549
487,656.0,16_47_19_21582
488,656.0,16_47_19_21632
489,656.0,16_47_19_21666
490,657.0,16_47_19_21715
491,657.0,16_47_19_21750
492,657.0,16_47_19_21799
493,658.0,16_47_19_21832
494,658.0,16_47_19_21883
495,658.0,16_47_19_21916
496,659.0,16_47_19_21949
497,659.0,16_47_20_21999
498,657.0,16_47_20_22032
499,656.0,16_47_20_22083
500,653.0,16_47_20_22117
501,651.0,16_47_20_22150
502,649.0,16_47_20_22200
503,646.0,16_47_20_22233
504,644.0,16_47_20_22283
505,642.0,16_47_20_22316
506,640.0,16_47_20_22366
507,638.0,16_47_20_22400
508,636.0,16_47_20_22433
509,634.0,16_47_20_22482
510,633.0,16_47_20_22516
511,631.0,16_47_20_22566
512,629.0,16_47_20_22599
513,627.0,16_47_20_22649
514,624.0,16_47_20_22682
515,622.0,16_47_20_22716
516,619.0,16_47_20_22766
517,616.0,16_47_20_22799
518,614.0,16_47_20_22849
519,611.0,16_47_20_22883
520,608.0,16_47_20_22933
521,605.0,16_47_20_22966
522,600.0,16_47_21_22999
523,636.0,16_47_21_23049
524,648.0,16_47_21_23083
525,654.0,16_47_21_23133
526,656.0,16_47_21_23166
527,656.0,16_47_21_23216
528,657.0,16_47_21_23250
529,657.0,16_47_21_23283
530,656.0,16_47_21_23332
531,657.0,16_47_21_23366
532,658.0,16_47_21_23416
533,657.0,16_47_21_23450
534,657.0,16_47_21_23483
535,655.0,16_47_21_23533
536,657.0,16_47_21_23566
537,658.0,16_47_21_23616
538,659.0,16_47_21_23650
539,659.0,16_47_21_23699
540,659.0,16_47_21_23732
541,659.0,16_47_21_23783
542,656.0,16_47_21_23816
543,654.0,16_47_21_23849
544,652.0,16_47_21_23899
545,649.0,16_47_21_23933
546,647.0,16_47_21_23982
547,645.0,16_47_22_24016
548,642.0,16_47_22_24049
549,641.0,16_47_22_24100
550,639.0,16_47_22_24132
551,637.0,16_47_22_24183
552,636.0,16_47_22_24216
553,634.0,16_47_22_24266
554,632.0,16_47_22_24299
555,630.0,16_47_22_24332
556,627.0,16_47_22_24383
557,625.0,16_47_22_24417
558,623.0,16_47_22_24466
559,620.0,16_47_22_24500
560,617.0,16_47_22_24550
561,614.0,16_47_22_24583
562,611.0,16_47_22_24616
563,608.0,16_47_22_24666
564,605.0,16_47_22_24700
565,602.0,16_47_22_24750
566,633.0,16_47_22_24782
567,647.0,16_47_22_24832
568,653.0,16_47_22_24867
569,655.0,16_47_22_24900
570,656.0,16_47_22_24950
571,659.0,16_47_22_24983
572,658.0,16_47_23_25033
573,657.0,16_47_23_25066
574,657.0,16_47_23_25116
575,657.0,16_47_23_25149
576,658.0,16_47_23_25183
577,657.0,16_47_23_25233
578,657.0,16_47_23_25266
579,658.0,16_47_23_25316
580,659.0,16_47_23_25349
581,659.0,16_47_23_25399
582,659.0,16_47_23_25433
583,657.0,16_47_23_25466
584,656.0,16_47_23_25516
585,653.0,16_47_23_25549
586,651.0,16_47_23_25600
587,649.0,16_47_23_25633
588,647.0,16_47_23_25683
589,644.0,16_47_23_25716
590,641.0,16_47_23_25750
591,638.0,16_47_23_25800
592,635.0,16_47_23_25833
593,633.0,16_47_23_25883
594,630.0,16_47_23_25916
595,627.0,16_47_23_25950
596,624.0,16_47_24_26000
597,622.0,16_47_24_26033
598,619.0,16_47_24_26083
599,616.0,16_47_24_26116
600,613.0,16_47_24_26167
601,610.0,16_47_24_26200
602,607.0,16_47_24_26250
603,638.0,16_47_24_26283
604,649.0,16_47_24_26316
605,654.0,16_47_24_26366
606,657.0,16_47_24_26400
607,657.0,16_47_24_26450
608,658.0,16_47_24_26483
609,658.0,16_47_24_26533
610,658.0,16_47_24_26566
611,658.0,16_47_24_26616
612,658.0,16_47_24_26649
613,658.0,16_47_24_26682
614,658.0,16_47_24_26733
615,658.0,16_47_24_26766
616,658.0,16_47_24_26816
617,658.0,16_47_24_26849
618,659.0,16_47_24_26883
619,659.0,16_47_24_26933
620,659.0,16_47_24_26967
621,659.0,16_47_25_27016
622,659.0,16_47_25_27049
623,659.0,16_47_25_27100
624,657.0,16_47_25_27133
625,655.0,16_47_25_27166
626,652.0,16_47_25_27217
627,649.0,16_47_25_27250
628,647.0,16_47_25_27300
629,644.0,16_47_25_27333
630,641.0,16_47_25_27366
631,639.0,16_47_25_27417
632,636.0,16_47_25_27449
633,633.0,16_47_25_27499
634,631.0,16_47_25_27533
635,628.0,16_47_25_27583
636,625.0,16_47_25_27616
637,623.0,16_47_25_27650
638,620.0,16_47_25_27699
639,617.0,16_47_25_27733
640,615.0,16_47_25_27783
641,612.0,16_47_25_27817
642,609.0,16_47_25_27866
643,639.0,16_47_25_27900
644,650.0,16_47_25_27949
645,655.0,16_47_25_27983
646,657.0,16_47_26_28033
647,657.0,16_47_26_28067
648,658.0,16_47_26_28100
649,657.0,16_47_26_28149
650,658.0,16_47_26_28183
651,658.0,16_47_26_28233
652,658.0,16_47_26_28267
653,658.0,16_47_26_28300
654,658.0,16_47_26_28349
655,658.0,16_47_26_28383
656,658.0,16_47_26_28433
657,658.0,16_47_26_28466
658,658.0,16_47_26_28516
659,658.0,16_47_26_28550
660,659.0,16_47_26_28583
661,659.0,16_47_26_28633
662,659.0,16_47_26_28666
663,659.0,16_47_26_28717
664,658.0,16_47_26_28750
665,655.0,16_47_26_28800
666,652.0,16_47_26_28833
667,649.0,16_47_26_28866
668,646.0,16_47_26_28916
669,644.0,16_47_26_28949
670,641.0,16_47_27_29000
671,639.0,16_47_27_29033
672,636.0,16_47_27_29066
673,633.0,16_47_27_29117
674,631.0,16_47_27_29150
675,627.0,16_47_27_29200
676,625.0,16_47_27_29233
677,623.0,16_47_27_29283
678,620.0,16_47_27_29317
679,617.0,16_47_27_29350
680,615.0,16_47_27_29399
681,612.0,16_47_27_29433
682,639.0,16_47_27_29483
683,651.0,16_47_27_29517
684,655.0,16_47_27_29566
685,656.0,16_47_27_29600
686,657.0,16_47_27_29650
687,658.0,16_47_27_29683
688,658.0,16_47_27_29733
689,658.0,16_47_27_29766
690,658.0,16_47_27_29800
691,658.0,16_47_27_29850
692,658.0,16_47_27_29883
693,658.0,16_47_27_29934
694,658.0,16_47_27_29967
695,658.0,16_47_28_30017
696,658.0,16_47_28_30050
697,658.0,16_47_28_30083
698,658.0,16_47_28_30133
699,658.0,16_47_28_30167
700,659.0,16_47_28_30217
701,659.0,16_47_28_30250
702,659.0,16_47_28_30283
703,656.0,16_47_28_30333
704,655.0,16_47_28_30367
705,652.0,16_47_28_30417
706,649.0,16_47_28_30449
707,647.0,16_47_28_30500
708,644.0,16_47_28_30533
709,641.0,16_47_28_30566
710,639.0,16_47_28_30617
711,636.0,16_47_28_30650
712,634.0,16_47_28_30700
713,631.0,16_47_28_30733
714,628.0,16_47_28_30766
715,626.0,16_47_28_30816
716,623.0,16_47_28_30849
717,620.0,16_47_28_30900
718,618.0,16_47_28_30933
719,615.0,16_47_28_30983
720,612.0,16_47_29_31016
721,609.0,16_47_29_31067
722,639.0,16_47_29_31100
723,650.0,16_47_29_31133
724,655.0,16_47_29_31183
725,657.0,16_47_29_31216
726,657.0,16_47_29_31267
727,658.0,16_47_29_31300
728,658.0,16_47_29_31350
729,658.0,16_47_29_31383
730,658.0,16_47_29_31433
731,658.0,16_47_29_31467
732,658.0,16_47_29_31500
733,658.0,16_47_29_31550
734,658.0,16_47_29_31583
735,658.0,16_47_29_31633
736,658.0,16_47_29_31666
737,659.0,16_47_29_31717
738,659.0,16_47_29_31750
739,659.0,16_47_29_31783
740,659.0,16_47_29_31833
741,659.0,16_47_29_31866
742,659.0,16_47_29_31917
743,656.0,16_47_29_31950
744,655.0,16_47_29_31983
745,652.0,16_47_30_32033
746,649.0,16_47_30_32067
747,647.0,16_47_30_32117
748,644.0,16_47_30_32150
749,641.0,16_47_30_32200
750,639.0,16_47_30_32233
751,636.0,16_47_30_32267
752,633.0,16_47_30_32317
753,631.0,16_47_30_32350
754,628.0,16_47_30_32401
755,626.0,16_47_30_32433
756,623.0,16_47_30_32467
757,620.0,16_47_30_32517
758,617.0,16_47_30_32550
759,615.0,16_47_30_32600
760,612.0,16_47_30_32633
761,609.0,16_47_30_32683
762,639.0,16_47_30_32717
763,650.0,16_47_30_32767
764,655.0,16_47_30_32800
765,657.0,16_47_30_32850
766,657.0,16_47_30_32883
767,658.0,16_47_30_32916
768,658.0,16_47_30_32966
769,658.0,16_47_31_32999
770,658.0,16_47_31_33050
771,658.0,16_47_31_33083
772,658.0,16_47_31_33133
773,658.0,16_47_31_33167
774,658.0,16_47_31_33200
775,658.0,16_47_31_33250
776,658.0,16_47_31_33284
777,658.0,16_47_31_33333
778,658.0,16_47_31_33366
779,658.0,16_47_31_33400
780,658.0,16_47_31_33451
781,659.0,16_47_31_33483
782,659.0,16_47_31_33534
783,658.0,16_47_31_33566
784,655.0,16_47_31_33617
785,653.0,16_47_31_33650
786,650.0,16_47_31_33683
787,647.0,16_47_31_33734
788,644.0,16_47_31_33767
789,641.0,16_47_31_33816
790,639.0,16_47_31_33850
791,636.0,16_47_31_33883
792,633.0,16_47_31_33934
793,631.0,16_47_31_33967
794,628.0,16_47_32_34017
795,626.0,16_47_32_34050
796,623.0,16_47_32_34100
797,621.0,16_47_32_34134
798,618.0,16_47_32_34166
799,615.0,16_47_32_34218
800,613.0,16_47_32_34250
801,610.0,16_47_32_34299
802,639.0,16_47_32_34333
803,650.0,16_47_32_34383
804,655.0,16_47_32_34417
805,657.0,16_47_32_34467
806,658.0,16_47_32_34500
807,658.0,16_47_32_34550
808,658.0,16_47_32_34583
809,658.0,16_47_32_34617
810,658.0,16_47_32_34667
811,658.0,16_47_32_34700
812,658.0,16_47_32_34750
813,658.0,16_47_32_34783
814,658.0,16_47_32_34833
815,658.0,16_47_32_34867
816,658.0,16_47_32_34900
817,658.0,16_47_32_34950
818,658.0,16_47_32_34983
819,659.0,16_47_33_35033
820,659.0,16_47_33_35066
821,659.0,16_47_33_35100
822,659.0,16_47_33_35150
823,658.0,16_47_33_35183
824,655.0,16_47_33_35233
825,652.0,16_47_33_35266
826,649.0,16_47_33_35301
827,646.0,16_47_33_35350
828,644.0,16_47_33_35383
829,641.0,16_47_33_35434
830,639.0,16_47_33_35467
831,636.0,16_47_33_35517
832,634.0,16_47_33_35550
833,631.0,16_47_33_35600
834,628.0,16_47_33_35633
835,626.0,16_47_33_35666
836,623.0,16_47_33_35717
837,620.0,16_47_33_35750
838,618.0,16_47_33_35800
839,615.0,16_47_33_35834
840,612.0,16_47_33_35867
841,609.0,16_47_33_35917
842,639.0,16_47_33_35950
843,651.0,16_47_34_36000
844,655.0,16_47_34_36034
845,657.0,16_47_34_36083
846,658.0,16_47_34_36117
847,658.0,16_47_34_36167
848,658.0,16_47_34_36200
849,658.0,16_47_34_36251
850,658.0,16_47_34_36283
851,658.0,16_47_34_36317
852,658.0,16_47_34_36367
853,658.0,16_47_34_36400
854,658.0,16_47_34_36450
855,658.0,16_47_34_36483
856,658.0,16_47_34_36533
857,659.0,16_47_34_36567
858,659.0,16_47_34_36600
859,659.0,16_47_34_36650
860,659.0,16_47_34_36683
861,659.0,16_47_34_36733
862,656.0,16_47_34_36767
863,493.0,16_47_34_36817
864,488.0,16_47_34_36850
865,487.0,16_47_34_36883
866,485.0,16_47_34_36934
867,485.0,16_47_34_36966
868,482.0,16_47_35_37017
869,480.0,16_47_35_37050
870,479.0,16_47_35_37083
871,478.0,16_47_35_37133
872,476.0,16_47_35_37167
873,473.0,16_47_35_37217
874,471.0,16_47_35_37250
875,470.0,16_47_35_37300
876,468.0,16_47_35_37334
877,467.0,16_47_35_37367
878,465.0,16_47_35_37417
879,463.0,16_47_35_37450
880,462.0,16_47_35_37500
881,458.0,16_47_35_37533
882,581.0,16_47_35_37583
883,628.0,16_47_35_37617
884,646.0,16_47_35_37667
885,653.0,16_47_35_37701
886,656.0,16_47_35_37733
887,657.0,16_47_35_37783
888,657.0,16_47_35_37817
889,658.0,16_47_35_37867
890,658.0,16_47_35_37900
891,658.0,16_47_35_37951
892,658.0,16_47_35_37984
893,658.0,16_47_36_38016
894,658.0,16_47_36_38067
895,658.0,16_47_36_38100
896,592.0,16_47_36_38150
897,428.0,16_47_36_38183
898,336.0,16_47_36_38216
899,282.0,16_47_36_38268
900,245.0,16_47_36_38303
901,144.0,16_47_36_38351
902,471.0,16_47_36_38384
903,584.0,16_47_36_38433
904,495.0,16_47_36_38467
905,309.0,16_47_36_38517
906,234.0,16_47_36_38550
907,187.0,16_47_36_38600
908,157.0,16_47_36_38634
909,152.0,16_47_36_38667
910,166.0,16_47_36_38716
911,191.0,16_47_36_38750
912,232.0,16_47_36_38800
913,195.0,16_47_36_38834
914,488.0,16_47_36_38884
915,591.0,16_47_36_38917
916,631.0,16_47_36_38950
917,647.0,16_47_37_39000
918,654.0,16_47_37_39033
919,656.0,16_47_37_39083
920,657.0,16_47_37_39117
921,658.0,16_47_37_39150
922,657.0,16_47_37_39200
923,658.0,16_47_37_39234
924,658.0,16_47_37_39283
925,658.0,16_47_37_39317
926,658.0,16_47_37_39367
927,658.0,16_47_37_39400
928,658.0,16_47_37_39450
929,658.0,16_47_37_39483
930,658.0,16_47_37_39534
931,658.0,16_47_37_39567
932,658.0,16_47_37_39600
933,658.0,16_47_37_39650
934,658.0,16_47_37_39684
935,657.0,16_47_37_39733
936,658.0,16_47_37_39766
937,658.0,16_47_37_39816
938,657.0,16_47_37_39850
939,657.0,16_47_37_39884
940,654.0,16_47_37_39934
941,653.0,16_47_37_39966
942,649.0,16_47_38_40017
943,647.0,16_47_38_40050
944,644.0,16_47_38_40100
945,642.0,16_47_38_40133
946,639.0,16_47_38_40167
947,636.0,16_47_38_40217
948,633.0,16_47_38_40250
949,627.0,16_47_38_40300
950,636.0,16_47_38_40334
951,649.0,16_47_38_40383
952,654.0,16_47_38_40417
953,657.0,16_47_38_40451
954,657.0,16_47_38_40500
955,657.0,16_47_38_40534
956,657.0,16_47_38_40583
957,658.0,16_47_38_40617
958,658.0,16_47_38_40667
959,658.0,16_47_38_40700
960,658.0,16_47_38_40733
961,658.0,16_47_38_40783
962,658.0,16_47_38_40817
963,658.0,16_47_38_40867
964,658.0,16_47_38_40901
965,658.0,16_47_38_40950
966,472.0,16_47_38_40984
967,367.0,16_47_39_41033
968,300.0,16_47_39_41067
969,257.0,16_47_39_41117
970,229.0,16_47_39_41150
971,208.0,16_47_39_41183
972,186.0,16_47_39_41234
973,190.0,16_47_39_41267
974,199.0,16_47_39_41301
975,203.0,16_47_39_41350
976,202.0,16_47_39_41384
977,181.0,16_47_39_41434
978,157.0,16_47_39_41467
979,146.0,16_47_39_41517
980,160.0,16_47_39_41550
981,103.0,16_47_39_41584
982,52.0,16_47_39_41635
983,36.0,16_47_39_41667
984,31.0,16_47_39_41717
985,30.0,16_47_39_41751
986,233.0,16_47_39_41800
987,497.0,16_47_39_41833
988,593.0,16_47_39_41884
989,631.0,16_47_39_41917
990,647.0,16_47_39_41967
991,653.0,16_47_40_42000
992,656.0,16_47_40_42033
993,657.0,16_47_40_42084
994,657.0,16_47_40_42117
995,658.0,16_47_40_42167
996,658.0,16_47_40_42201
997,658.0,16_47_40_42250
998,658.0,16_47_40_42283
999,658.0,16_47_40_42333
1000,657.0,16_47_40_42368
1001,657.0,16_47_40_42401
1002,657.0,16_47_40_42450
1003,658.0,16_47_40_42484
1004,657.0,16_47_40_42533
1005,657.0,16_47_40_42567
1006,657.0,16_47_40_42600
1007,657.0,16_47_40_42651
1008,656.0,16_47_40_42684
1009,655.0,16_47_40_42733
1010,631.0,16_47_40_42767
1011,581.0,16_47_40_42801
1012,581.0,16_47_40_42851
1013,578.0,16_47_40_42884
1014,576.0,16_47_40_42933
1015,573.0,16_47_40_42967
1016,570.0,16_47_41_43017
1017,568.0,16_47_41_43050
1018,566.0,16_47_41_43084
1019,563.0,16_47_41_43134
1020,561.0,16_47_41_43168
1021,558.0,16_47_41_43217
1022,556.0,16_47_41_43251
1023,619.0,16_47_41_43301
1024,642.0,16_47_41_43333
1025,652.0,16_47_41_43384
1026,656.0,16_47_41_43417
1027,657.0,16_47_41_43467
1028,657.0,16_47_41_43500
1029,658.0,16_47_41_43534
1030,658.0,16_47_41_43584
1031,658.0,16_47_41_43617
1032,658.0,16_47_41_43668
1033,658.0,16_47_41_43701
1034,658.0,16_47_41_43751
1035,658.0,16_47_41_43784
1036,658.0,16_47_41_43817
1037,658.0,16_47_41_43867
1038,658.0,16_47_41_43901
1039,658.0,16_47_41_43950
1040,658.0,16_47_41_43984
1041,658.0,16_47_42_44017
1042,658.0,16_47_42_44067
1043,658.0,16_47_42_44101
1044,658.0,16_47_42_44150
1045,657.0,16_47_42_44184
1046,658.0,16_47_42_44234
1047,657.0,16_47_42_44267
1048,657.0,16_47_42_44317
1049,656.0,16_47_42_44351
1050,653.0,16_47_42_44384
1051,652.0,16_47_42_44433
1052,649.0,16_47_42_44468
1053,646.0,16_47_42_44517
1054,643.0,16_47_42_44551
1055,639.0,16_47_42_44584
1056,636.0,16_47_42_44634
1057,633.0,16_47_42_44668
1058,631.0,16_47_42_44717
1059,629.0,16_47_42_44750
1060,626.0,16_47_42_44801
1061,623.0,16_47_42_44834
1062,620.0,16_47_42_44884
1063,644.0,16_47_42_44917
1064,653.0,16_47_42_44967
1065,655.0,16_47_43_45001
1066,620.0,16_47_43_45034
1067,643.0,16_47_43_45083
1068,652.0,16_47_43_45117
1069,656.0,16_47_43_45168
1070,657.0,16_47_43_45201
1071,657.0,16_47_43_45234
1072,657.0,16_47_43_45284
1073,658.0,16_47_43_45318
1074,658.0,16_47_43_45367
1075,657.0,16_47_43_45401
1076,657.0,16_47_43_45450
1077,657.0,16_47_43_45484
1078,653.0,16_47_43_45517
1079,564.0,16_47_43_45567
1080,590.0,16_47_43_45601
1081,631.0,16_47_43_45651
1082,643.0,16_47_43_45684
1083,581.0,16_47_43_45734
1084,622.0,16_47_43_45767
1085,590.0,16_47_43_45817
1086,630.0,16_47_43_45850
1087,503.0,16_47_43_45884
1088,474.0,16_47_43_45934
1089,273.0,16_47_43_45967
1090,178.0,16_47_44_46017
1091,141.0,16_47_44_46051
1092,153.0,16_47_44_46100
1093,162.0,16_47_44_46134
1094,170.0,16_47_44_46168
1095,179.0,16_47_44_46217
1096,184.0,16_47_44_46251
1097,190.0,16_47_44_46301
1098,198.0,16_47_44_46334
1099,486.0,16_47_44_46384
1100,589.0,16_47_44_46417
1101,630.0,16_47_44_46467
1102,646.0,16_47_44_46501
1103,653.0,16_47_44_46534
1104,656.0,16_47_44_46584
1105,657.0,16_47_44_46617
1106,658.0,16_47_44_46668
1107,657.0,16_47_44_46700
1108,658.0,16_47_44_46734
1109,658.0,16_47_44_46784
1110,658.0,16_47_44_46817
1111,658.0,16_47_44_46868
1112,657.0,16_47_44_46900
1113,657.0,16_47_44_46950
1114,657.0,16_47_44_46984
1115,655.0,16_47_45_47034
1116,644.0,16_47_45_47067
1117,651.0,16_47_45_47100
1118,647.0,16_47_45_47151
1119,640.0,16_47_45_47184
1120,524.0,16_47_45_47234
1121,468.0,16_47_45_47267
1122,479.0,16_47_45_47318
1123,466.0,16_47_45_47350
1124,371.0,16_47_45_47401
1125,342.0,16_47_45_47434
1126,311.0,16_47_45_47467
1127,314.0,16_47_45_47517
1128,315.0,16_47_45_47551
1129,315.0,16_47_45_47600
1130,314.0,16_47_45_47635
1131,314.0,16_47_45_47668
1132,315.0,16_47_45_47718
1133,315.0,16_47_45_47750
1134,315.0,16_47_45_47801
1135,316.0,16_47_45_47834
1136,316.0,16_47_45_47884
1137,317.0,16_47_45_47918
1138,317.0,16_47_45_47950
1139,328.0,16_47_46_48001
1140,456.0,16_47_46_48034
1141,579.0,16_47_46_48084
1142,627.0,16_47_46_48117
1143,645.0,16_47_46_48150
1144,652.0,16_47_46_48201
1145,656.0,16_47_46_48234
1146,657.0,16_47_46_48284
1147,658.0,16_47_46_48317
1148,658.0,16_47_46_48368
1149,657.0,16_47_46_48400
1150,658.0,16_47_46_48451
1151,658.0,16_47_46_48484
1152,658.0,16_47_46_48534
1153,658.0,16_47_46_48568
1154,658.0,16_47_46_48601
1155,658.0,16_47_46_48651
1156,658.0,16_47_46_48684
1157,657.0,16_47_46_48734
1158,657.0,16_47_46_48768
1159,655.0,16_47_46_48817
1160,653.0,16_47_46_48851
1161,647.0,16_47_46_48884
1162,549.0,16_47_46_48934
1163,482.0,16_47_46_48967
1164,353.0,16_47_47_49018
1165,308.0,16_47_47_49051
1166,257.0,16_47_47_49085
1167,260.0,16_47_47_49134
1168,264.0,16_47_47_49167
1169,266.0,16_47_47_49218
1170,268.0,16_47_47_49251
1171,270.0,16_47_47_49301
1172,271.0,16_47_47_49334
1173,272.0,16_47_47_49367
1174,246.0,16_47_47_49418
1175,390.0,16_47_47_49451
1176,518.0,16_47_47_49500
1177,527.0,16_47_47_49535
1178,562.0,16_47_47_49584
1179,589.0,16_47_47_49618
1180,569.0,16_47_47_49668
1181,574.0,16_47_47_49701
1182,228.0,16_47_47_49734
1183,100.0,16_47_47_49784
1184,52.0,16_47_47_49817
1185,64.0,16_47_47_49867
1186,181.0,16_47_47_49901
1187,273.0,16_47_47_49950
1188,345.0,16_47_47_49985
1189,372.0,16_47_48_50034
1190,374.0,16_47_48_50067
1191,361.0,16_47_48_50101
1192,339.0,16_47_48_50151
1193,307.0,16_47_48_50184
1194,270.0,16_47_48_50234
1195,241.0,16_47_48_50268
1196,224.0,16_47_48_50317
1197,209.0,16_47_48_50351
1198,195.0,16_47_48_50384
1199,197.0,16_47_48_50434
1200,205.0,16_47_48_50467
1201,209.0,16_47_48_50518
1202,205.0,16_47_48_50551
1203,168.0,16_47_48_50601
1204,153.0,16_47_48_50634
1205,161.0,16_47_48_50668
1206,169.0,16_47_48_50717
1207,77.0,16_47_48_50751
1208,45.0,16_47_48_50801
1209,33.0,16_47_48_50834
1210,30.0,16_47_48_50867
1211,29.0,16_47_48_50917
1212,27.0,16_47_48_50951
1213,287.0,16_47_49_51001
1214,515.0,16_47_49_51034
1215,600.0,16_47_49_51084
1216,633.0,16_47_49_51118
1217,647.0,16_47_49_51168
1218,652.0,16_47_49_51201
1219,654.0,16_47_49_51235
1220,656.0,16_47_49_51284
1221,656.0,16_47_49_51318
1222,655.0,16_47_49_51368
1223,574.0,16_47_49_51401
1224,311.0,16_47_49_51451
1225,201.0,16_47_49_51484
1226,130.0,16_47_49_51517
1227,349.0,16_47_49_51567
1228,413.0,16_47_49_51601
1229,429.0,16_47_49_51651
1230,479.0,16_47_49_51684
1231,462.0,16_47_49_51734
1232,480.0,16_47_49_51768
1233,479.0,16_47_49_51817
1234,477.0,16_47_49_51851
1235,454.0,16_47_49_51884
1236,378.0,16_47_49_51934
1237,364.0,16_47_49_51967
1238,327.0,16_47_50_52018
1239,327.0,16_47_50_52051
1240,327.0,16_47_50_52101
1241,328.0,16_47_50_52135
1242,328.0,16_47_50_52167
1243,328.0,16_47_50_52217
1244,329.0,16_47_50_52251
1245,328.0,16_47_50_52301
1246,327.0,16_47_50_52334
1247,325.0,16_47_50_52384
1248,343.0,16_47_50_52418
1249,350.0,16_47_50_52468
1250,417.0,16_47_50_52501
1251,420.0,16_47_50_52534
1252,168.0,16_47_50_52584
1253,339.0,16_47_50_52617
1254,459.0,16_47_50_52667
1255,532.0,16_47_50_52701
1256,514.0,16_47_50_52735
1257,525.0,16_47_50_52785
1258,212.0,16_47_50_52818
