position,GSR_Reading,Time_Stamp
0,50.0,11_37_50_583
1,502.0,11_37_50_599
2,502.0,11_37_50_615
3,500.0,11_37_50_632
4,502.0,11_37_50_648
5,502.0,11_37_50_665
6,502.0,11_37_50_682
7,502.0,11_37_50_699
8,502.0,11_37_50_715
9,502.0,11_37_50_733
10,502.0,11_37_50_748
11,502.0,11_37_50_765
12,NaN,11_37_50_784
13,502.0,11_37_50_799
14,502.0,11_37_50_815
15,502.0,11_37_50_832
16,502.0,11_37_50_849
17,502.0,11_37_50_865
18,502.0,11_37_50_882
19,502.0,11_37_50_899
20,502.0,11_37_50_915
21,NaN,11_37_51_1916
22,502.0,11_37_51_1965
23,502.0,11_37_51_1999
24,502.0,11_37_51_2049
25,502.0,11_37_51_2082
26,502.0,11_37_51_2132
27,502.0,11_37_51_2166
28,502.0,11_37_51_2199
29,503.0,11_37_51_2248
30,502.0,11_37_51_2282
31,503.0,11_37_51_2332
32,503.0,11_37_51_2365
33,502.0,11_37_51_2415
34,503.0,11_37_52_2449
35,503.0,11_37_52_2498
36,503.0,11_37_52_2533
37,502.0,11_37_52_2582
38,502.0,11_37_52_2616
39,502.0,11_37_52_2649
40,502.0,11_37_52_2698
41,502.0,11_37_52_2732
42,502.0,11_37_52_2782
43,502.0,11_37_52_2815
44,502.0,11_37_52_2866
45,502.0,11_37_52_2898
46,502.0,11_37_52_2949
47,502.0,11_37_52_2982
48,502.0,11_37_52_3032
49,502.0,11_37_52_3066
50,503.0,11_37_52_3116
51,502.0,11_37_52_3149
52,502.0,11_37_52_3182
53,502.0,11_37_52_3232
54,502.0,11_37_52_3282
55,502.0,11_37_52_3315
56,502.0,11_37_52_3366
57,501.0,11_37_52_3399
58,501.0,11_37_53_3433
59,502.0,11_37_53_3482
60,501.0,11_37_53_3515
61,502.0,11_37_53_3565
62,502.0,11_37_53_3599
63,502.0,11_37_53_3649
64,502.0,11_37_53_3683
65,502.0,11_37_53_3732
66,502.0,11_37_53_3766
67,503.0,11_37_53_3815
68,503.0,11_37_53_3849
69,502.0,11_37_53_3883
70,503.0,11_37_53_3932
71,503.0,11_37_53_3965
72,502.0,11_37_53_4015
73,502.0,11_37_53_4049
74,502.0,11_37_53_4098
75,501.0,11_37_53_4132
76,502.0,11_37_53_4182
77,502.0,11_37_53_4215
78,502.0,11_37_53_4265
79,502.0,11_37_53_4299
80,502.0,11_37_53_4349
81,502.0,11_37_53_4382
82,503.0,11_37_53_4416
83,502.0,11_37_54_4465
84,502.0,11_37_54_4498
85,502.0,11_37_54_4549
86,503.0,11_37_54_4582
87,502.0,11_37_54_4632
88,503.0,11_37_54_4665
89,503.0,11_37_54_4715
90,502.0,11_37_54_4748
91,503.0,11_37_54_4799
92,502.0,11_37_54_4832
93,502.0,11_37_54_4882
94,502.0,11_37_54_4916
95,502.0,11_37_54_4966
96,502.0,11_37_54_4998
97,502.0,11_37_54_5049
98,502.0,11_37_54_5082
99,502.0,11_37_54_5116
100,502.0,11_37_54_5166
101,503.0,11_37_54_5199
102,502.0,11_37_54_5249
103,502.0,11_37_54_5282
104,502.0,11_37_54_5332
105,503.0,11_37_54_5366
106,503.0,11_37_54_5416
107,503.0,11_37_55_5449
108,502.0,11_37_55_5499
109,503.0,11_37_55_5532
110,502.0,11_37_55_5566
111,502.0,11_37_55_5615
112,502.0,11_37_55_5665
113,502.0,11_37_55_5699
114,502.0,11_37_55_5749
115,501.0,11_37_55_5782
116,502.0,11_37_55_5816
117,502.0,11_37_55_5866
118,502.0,11_37_55_5899
119,502.0,11_37_55_5949
120,502.0,11_37_55_5982
121,502.0,11_37_55_6032
122,503.0,11_37_55_6065
123,503.0,11_37_55_6229
124,503.0,11_37_55_6253
125,502.0,11_37_55_6269
126,503.0,11_37_55_6286
127,502.0,11_37_55_6303
128,502.0,11_37_55_6320
129,502.0,11_37_55_6353
130,502.0,11_37_55_6403
131,502.0,11_37_56_6436
132,502.0,11_37_56_6470
133,502.0,11_37_56_6520
134,501.0,11_37_56_6553
135,502.0,11_37_56_6603
136,502.0,11_37_56_6636
137,503.0,11_37_56_6686
138,503.0,11_37_56_6720
139,502.0,11_37_56_6769
140,503.0,11_37_56_6803
141,503.0,11_37_56_6853
142,503.0,11_37_56_6887
143,503.0,11_37_56_6936
144,502.0,11_37_56_6970
145,503.0,11_37_56_7020
146,502.0,11_37_56_7053
147,502.0,11_37_56_7103
148,502.0,11_37_56_7137
149,502.0,11_37_56_7187
150,501.0,11_37_56_7220
151,502.0,11_37_56_7253
152,502.0,11_37_56_7303
153,502.0,11_37_56_7337
154,502.0,11_37_56_7386
155,503.0,11_37_57_7419
156,502.0,11_37_57_7469
157,502.0,11_37_57_7503
158,502.0,11_37_57_7553
159,503.0,11_37_57_7586
160,503.0,11_37_57_7636
161,503.0,11_37_57_7670
162,502.0,11_37_57_7703
163,502.0,11_37_57_7752
164,502.0,11_37_57_7786
165,502.0,11_37_57_7837
166,502.0,11_37_57_7870
167,502.0,11_37_57_7919
168,501.0,11_37_57_7954
169,502.0,11_37_57_8003
170,502.0,11_37_57_8037
171,501.0,11_37_57_8086
172,502.0,11_37_57_8120
173,503.0,11_37_57_8169
174,503.0,11_37_57_8203
175,502.0,11_37_57_8236
176,503.0,11_37_57_8286
177,503.0,11_37_57_8320
178,503.0,11_37_57_8370
179,503.0,11_37_57_8403
180,503.0,11_37_58_8453
181,503.0,11_37_58_8486
182,502.0,11_37_58_8537
183,502.0,11_37_58_8569
184,502.0,11_37_58_8619
185,501.0,11_37_58_8653
186,502.0,11_37_58_8703
187,501.0,11_37_58_8736
188,502.0,11_37_58_8786
189,502.0,11_37_58_8820
190,502.0,11_37_58_8869
191,503.0,11_37_58_8903
192,502.0,11_37_58_8936
193,503.0,11_37_58_8987
194,502.0,11_37_58_9020
195,502.0,11_37_58_9070
196,503.0,11_37_58_9103
197,503.0,11_37_58_9153
198,502.0,11_37_58_9186
199,502.0,11_37_58_9237
200,502.0,11_37_58_9270
201,502.0,11_37_58_9320
202,502.0,11_37_58_9353
203,502.0,11_37_58_9403
204,502.0,11_37_59_9436
205,501.0,11_37_59_9486
206,502.0,11_37_59_9519
207,502.0,11_37_59_9553
208,502.0,11_37_59_9603
209,502.0,11_37_59_9636
210,503.0,11_37_59_9686
211,503.0,11_37_59_9719
212,503.0,11_37_59_9769
213,503.0,11_37_59_9803
214,503.0,11_37_59_9853
215,503.0,11_37_59_9887
216,502.0,11_37_59_9936
217,502.0,11_37_59_9969
218,502.0,11_37_59_10020
219,502.0,11_37_59_10053
220,502.0,11_37_59_10103
221,502.0,11_37_59_10136
222,502.0,11_37_59_10169
223,502.0,11_37_59_10219
224,501.0,11_37_59_10253
225,502.0,11_37_59_10303
226,502.0,11_37_59_10337
227,502.0,11_37_59_10386
228,503.0,11_38_0_10420
229,502.0,11_38_0_10469
230,502.0,11_38_0_10503
231,503.0,11_38_0_10553
232,502.0,11_38_0_10586
233,503.0,11_38_0_10620
234,503.0,11_38_0_10670
235,502.0,11_38_0_10703
236,502.0,11_38_0_10753
237,502.0,11_38_0_10787
238,501.0,11_38_0_10837
239,502.0,11_38_0_10870
240,501.0,11_38_0_10919
241,502.0,11_38_0_10953
242,502.0,11_38_0_11003
243,502.0,11_38_0_11037
244,503.0,11_38_0_11086
245,502.0,11_38_0_11120
246,502.0,11_38_0_11170
247,503.0,11_38_0_11203
248,503.0,11_38_0_11253
249,502.0,11_38_0_11287
250,503.0,11_38_0_11337
251,503.0,11_38_0_11369
252,503.0,11_38_0_11403
253,503.0,11_38_1_11453
254,502.0,11_38_1_11486
255,502.0,11_38_1_11536
256,502.0,11_38_1_11569
257,501.0,11_38_1_11620
258,502.0,11_38_1_11654
259,502.0,11_38_1_11703
260,502.0,11_38_1_11736
261,502.0,11_38_1_11787
262,502.0,11_38_1_11819
263,502.0,11_38_1_11853
264,502.0,11_38_1_11903
265,502.0,11_38_1_11936
266,503.0,11_38_1_11986
267,502.0,11_38_1_12020
268,503.0,11_38_1_12070
269,502.0,11_38_1_12103
270,502.0,11_38_1_12153
271,502.0,11_38_1_12186
272,502.0,11_38_1_12237
273,502.0,11_38_1_12270
274,501.0,11_38_1_12320
275,502.0,11_38_1_12353
276,502.0,11_38_1_12403
277,502.0,11_38_2_12436
278,502.0,11_38_2_12487
279,502.0,11_38_2_12520
280,502.0,11_38_2_12553
281,503.0,11_38_2_12603
282,502.0,11_38_2_12636
283,502.0,11_38_2_12687
284,502.0,11_38_2_12720
285,502.0,11_38_2_12770
286,502.0,11_38_2_12803
287,503.0,11_38_2_12853
288,503.0,11_38_2_12886
289,502.0,11_38_2_12936
290,502.0,11_38_2_12970
291,502.0,11_38_2_13020
292,501.0,11_38_2_13053
293,502.0,11_38_2_13086
294,501.0,11_38_2_13137
295,502.0,11_38_2_13169
296,502.0,11_38_2_13219
297,502.0,11_38_2_13253
298,502.0,11_38_2_13303
299,502.0,11_38_2_13336
300,502.0,11_38_2_13386
301,502.0,11_38_3_13420
302,503.0,11_38_3_13470
303,503.0,11_38_3_13504
304,503.0,11_38_3_13536
305,503.0,11_38_3_13587
306,503.0,11_38_3_13620
307,502.0,11_38_3_13670
308,502.0,11_38_3_13720
309,502.0,11_38_3_13753
310,502.0,11_38_3_13786
311,502.0,11_38_3_13836
312,501.0,11_38_3_13869
313,502.0,11_38_3_13920
314,502.0,11_38_3_13953
315,502.0,11_38_3_14003
316,502.0,11_38_3_14036
317,502.0,11_38_3_14087
318,503.0,11_38_3_14120
319,502.0,11_38_3_14170
320,503.0,11_38_3_14203
321,503.0,11_38_3_14253
322,503.0,11_38_3_14287
323,502.0,11_38_3_14320
324,503.0,11_38_3_14369
325,502.0,11_38_3_14403
326,502.0,11_38_4_14453
327,502.0,11_38_4_14487
328,502.0,11_38_4_14536
329,502.0,11_38_4_14570
330,502.0,11_38_4_14620
331,502.0,11_38_4_14653
332,502.0,11_38_4_14703
333,502.0,11_38_4_14737
334,502.0,11_38_4_14770
335,502.0,11_38_4_14820
336,503.0,11_38_4_14853
337,503.0,11_38_4_14903
338,503.0,11_38_4_14937
339,503.0,11_38_4_14986
340,503.0,11_38_4_15019
341,503.0,11_38_4_15070
342,502.0,11_38_4_15103
343,502.0,11_38_4_15153
344,502.0,11_38_4_15186
345,502.0,11_38_4_15237
346,502.0,11_38_4_15270
347,502.0,11_38_4_15319
348,502.0,11_38_4_15354
349,501.0,11_38_4_15403
350,502.0,11_38_5_15436
351,503.0,11_38_5_15470
352,502.0,11_38_5_15520
353,503.0,11_38_5_15553
354,503.0,11_38_5_15604
355,503.0,11_38_5_15636
356,503.0,11_38_5_15687
357,503.0,11_38_5_15720
358,502.0,11_38_5_15770
359,502.0,11_38_5_15803
360,502.0,11_38_5_15853
361,502.0,11_38_5_15887
362,502.0,11_38_5_15936
363,502.0,11_38_5_15969
364,502.0,11_38_5_16003
365,502.0,11_38_5_16053
366,502.0,11_38_5_16087
367,502.0,11_38_5_16136
368,502.0,11_38_5_16170
369,502.0,11_38_5_16220
370,502.0,11_38_5_16253
371,502.0,11_38_5_16303
372,503.0,11_38_5_16337
373,502.0,11_38_5_16387
374,502.0,11_38_6_16420
375,503.0,11_38_6_16453
376,503.0,11_38_6_16504
377,502.0,11_38_6_16553
378,502.0,11_38_6_16586
379,502.0,11_38_6_16636
380,502.0,11_38_6_16670
381,502.0,11_38_6_16704
382,502.0,11_38_6_16753
383,501.0,11_38_6_16787
384,502.0,11_38_6_16837
385,502.0,11_38_6_16870
386,502.0,11_38_6_16920
387,502.0,11_38_6_16953
388,502.0,11_38_6_17003
389,503.0,11_38_6_17037
390,503.0,11_38_6_17087
391,503.0,11_38_6_17120
392,503.0,11_38_6_17154
393,503.0,11_38_6_17203
394,503.0,11_38_6_17237
395,502.0,11_38_6_17287
396,502.0,11_38_6_17320
397,502.0,11_38_6_17370
398,505.0,11_38_6_17404
399,503.0,11_38_7_17453
400,503.0,11_38_7_17487
401,502.0,11_38_7_17537
402,503.0,11_38_7_17570
403,503.0,11_38_7_17603
404,504.0,11_38_7_17653
405,500.0,11_38_7_17704
406,505.0,11_38_7_17737
407,517.0,11_38_7_17787
408,511.0,11_38_7_17820
409,508.0,11_38_7_17870
410,506.0,11_38_7_17903
411,505.0,11_38_7_17936
412,504.0,11_38_7_17986
413,504.0,11_38_7_18020
414,503.0,11_38_7_18070
415,503.0,11_38_7_18103
416,502.0,11_38_7_18153
417,502.0,11_38_7_18186
418,502.0,11_38_7_18237
419,502.0,11_38_7_18270
420,502.0,11_38_7_18304
421,502.0,11_38_7_18354
422,502.0,11_38_7_18387
423,503.0,11_38_8_18436
424,502.0,11_38_8_18470
425,503.0,11_38_8_18520
426,503.0,11_38_8_18553
427,503.0,11_38_8_18603
428,503.0,11_38_8_18636
429,503.0,11_38_8_18687
430,502.0,11_38_8_18721
431,502.0,11_38_8_18771
432,502.0,11_38_8_18804
433,502.0,11_38_8_18853
434,502.0,11_38_8_18887
435,502.0,11_38_8_18937
436,502.0,11_38_8_18970
437,502.0,11_38_8_19021
438,502.0,11_38_8_19053
439,502.0,11_38_8_19104
440,502.0,11_38_8_19136
441,502.0,11_38_8_19170
442,503.0,11_38_8_19220
443,502.0,11_38_8_19253
444,503.0,11_38_8_19303
445,503.0,11_38_8_19337
446,503.0,11_38_8_19387
447,503.0,11_38_9_19420
448,503.0,11_38_9_19470
449,502.0,11_38_9_19504
450,503.0,11_38_9_19553
451,502.0,11_38_9_19587
452,502.0,11_38_9_19620
453,502.0,11_38_9_19670
454,502.0,11_38_9_19704
455,502.0,11_38_9_19754
456,502.0,11_38_9_19787
457,501.0,11_38_9_19837
458,502.0,11_38_9_19871
459,502.0,11_38_9_19921
460,503.0,11_38_9_19953
461,503.0,11_38_9_20003
462,503.0,11_38_9_20038
463,502.0,11_38_9_20070
464,503.0,11_38_9_20120
465,502.0,11_38_9_20154
466,502.0,11_38_9_20203
467,503.0,11_38_9_20237
468,503.0,11_38_9_20287
469,502.0,11_38_9_20320
470,502.0,11_38_9_20370
471,501.0,11_38_9_20403
472,502.0,11_38_10_20454
473,502.0,11_38_10_20487
474,502.0,11_38_10_20537
475,502.0,11_38_10_20570
476,502.0,11_38_10_20620
477,502.0,11_38_10_20654
478,502.0,11_38_10_20704
479,502.0,11_38_10_20737
480,503.0,11_38_10_20770
481,503.0,11_38_10_20820
482,503.0,11_38_10_20853
483,502.0,11_38_10_20904
484,502.0,11_38_10_20937
485,502.0,11_38_10_20987
486,502.0,11_38_10_21021
487,502.0,11_38_10_21070
488,502.0,11_38_10_21104
489,502.0,11_38_10_21154
490,502.0,11_38_10_21187
491,502.0,11_38_10_21237
492,502.0,11_38_10_21270
493,502.0,11_38_10_21303
494,502.0,11_38_10_21353
495,502.0,11_38_10_21387
496,502.0,11_38_11_21437
497,503.0,11_38_11_21471
498,503.0,11_38_11_21520
499,503.0,11_38_11_21554
500,503.0,11_38_11_21604
501,503.0,11_38_11_21638
502,503.0,11_38_11_21687
503,503.0,11_38_11_21720
504,503.0,11_38_11_21770
505,503.0,11_38_11_21804
506,502.0,11_38_11_21853
507,502.0,11_38_11_21887
508,502.0,11_38_11_21936
509,502.0,11_38_11_21971
510,502.0,11_38_11_22004
511,502.0,11_38_11_22054
512,502.0,11_38_11_22087
513,503.0,11_38_11_22137
514,503.0,11_38_11_22170
515,503.0,11_38_11_22221
516,503.0,11_38_11_22254
517,503.0,11_38_11_22304
518,503.0,11_38_11_22337
519,503.0,11_38_11_22386
520,503.0,11_38_12_22420
521,502.0,11_38_12_22454
522,502.0,11_38_12_22503
523,502.0,11_38_12_22537
524,502.0,11_38_12_22587
525,502.0,11_38_12_22621
526,502.0,11_38_12_22670
527,502.0,11_38_12_22703
528,502.0,11_38_12_22754
529,502.0,11_38_12_22787
530,503.0,11_38_12_22837
531,502.0,11_38_12_22870
532,503.0,11_38_12_22921
533,502.0,11_38_12_22954
534,503.0,11_38_12_22987
535,503.0,11_38_12_23037
536,503.0,11_38_12_23071
537,502.0,11_38_12_23121
538,503.0,11_38_12_23154
539,503.0,11_38_12_23204
540,503.0,11_38_12_23237
541,503.0,11_38_12_23287
542,502.0,11_38_12_23321
543,502.0,11_38_12_23371
544,502.0,11_38_12_23404
545,502.0,11_38_13_23453
546,502.0,11_38_13_23487
547,502.0,11_38_13_23537
548,502.0,11_38_13_23571
549,502.0,11_38_13_23620
550,502.0,11_38_13_23654
551,503.0,11_38_13_23687
552,503.0,11_38_13_23737
553,503.0,11_38_13_23770
554,503.0,11_38_13_23820
555,503.0,11_38_13_23853
556,503.0,11_38_13_23903
557,502.0,11_38_13_23937
558,502.0,11_38_13_23987
559,502.0,11_38_13_24020
560,502.0,11_38_13_24071
561,502.0,11_38_13_24104
562,502.0,11_38_13_24154
563,502.0,11_38_13_24188
564,502.0,11_38_13_24237
565,502.0,11_38_13_24271
566,502.0,11_38_13_24304
567,503.0,11_38_13_24354
568,502.0,11_38_13_24404
569,502.0,11_38_14_24437
570,503.0,11_38_14_24470
571,503.0,11_38_14_24520
572,503.0,11_38_14_24554
573,503.0,11_38_14_24604
574,503.0,11_38_14_24637
575,503.0,11_38_14_24687
576,503.0,11_38_14_24721
577,503.0,11_38_14_24771
578,502.0,11_38_14_24804
579,502.0,11_38_14_24837
580,502.0,11_38_14_24887
581,502.0,11_38_14_24920
582,502.0,11_38_14_24971
583,502.0,11_38_14_25004
584,502.0,11_38_14_25054
585,503.0,11_38_14_25087
586,503.0,11_38_14_25137
587,503.0,11_38_14_25170
588,502.0,11_38_14_25221
589,503.0,11_38_14_25254
590,503.0,11_38_14_25304
591,503.0,11_38_14_25337
592,503.0,11_38_14_25387
593,503.0,11_38_15_25420
594,502.0,11_38_15_25454
595,503.0,11_38_15_25504
596,502.0,11_38_15_25554
597,502.0,11_38_15_25587
598,502.0,11_38_15_25637
599,501.0,11_38_15_25671
600,502.0,11_38_15_25704
601,501.0,11_38_15_25754
602,502.0,11_38_15_25788
603,502.0,11_38_15_25837
604,502.0,11_38_15_25871
605,502.0,11_38_15_25921
606,503.0,11_38_15_25954
607,503.0,11_38_15_26004
608,503.0,11_38_15_26037
609,503.0,11_38_15_26087
610,503.0,11_38_15_26120
611,503.0,11_38_15_26154
612,502.0,11_38_15_26204
613,503.0,11_38_15_26237
614,502.0,11_38_15_26287
615,502.0,11_38_15_26321
616,502.0,11_38_15_26370
617,502.0,11_38_15_26404
618,502.0,11_38_16_26454
619,502.0,11_38_16_26487
620,502.0,11_38_16_26538
621,502.0,11_38_16_26571
622,502.0,11_38_16_26604
623,503.0,11_38_16_26654
624,503.0,11_38_16_26687
625,503.0,11_38_16_26737
626,503.0,11_38_16_26770
627,503.0,11_38_16_26821
628,503.0,11_38_16_26854
629,503.0,11_38_16_26904
630,503.0,11_38_16_26937
631,503.0,11_38_16_26987
632,502.0,11_38_16_27021
633,502.0,11_38_16_27070
634,502.0,11_38_16_27104
635,502.0,11_38_16_27154
636,502.0,11_38_16_27187
637,502.0,11_38_16_27237
638,502.0,11_38_16_27270
639,502.0,11_38_16_27304
640,503.0,11_38_16_27354
641,503.0,11_38_16_27387
642,502.0,11_38_17_27437
643,503.0,11_38_17_27470
644,503.0,11_38_17_27521
645,503.0,11_38_17_27553
646,502.0,11_38_17_27604
647,502.0,11_38_17_27637
648,503.0,11_38_17_27687
649,502.0,11_38_17_27721
650,502.0,11_38_17_27771
651,502.0,11_38_17_27804
652,502.0,11_38_17_27837
653,502.0,11_38_17_27887
654,502.0,11_38_17_27921
655,502.0,11_38_17_27970
656,502.0,11_38_17_28004
657,502.0,11_38_17_28054
658,502.0,11_38_17_28087
659,502.0,11_38_17_28137
660,502.0,11_38_17_28171
661,502.0,11_38_17_28221
662,503.0,11_38_17_28254
663,502.0,11_38_17_28304
664,502.0,11_38_17_28337
665,503.0,11_38_17_28370
666,502.0,11_38_18_28420
667,503.0,11_38_18_28454
668,502.0,11_38_18_28504
669,502.0,11_38_18_28537
670,502.0,11_38_18_28587
671,502.0,11_38_18_28620
672,502.0,11_38_18_28670
673,502.0,11_38_18_28704
674,502.0,11_38_18_28754
675,502.0,11_38_18_28788
676,502.0,11_38_18_28837
677,502.0,11_38_18_28870
678,502.0,11_38_18_28920
679,502.0,11_38_18_28954
680,503.0,11_38_18_28988
681,502.0,11_38_18_29037
682,502.0,11_38_18_29071
683,502.0,11_38_18_29121
684,503.0,11_38_18_29154
685,503.0,11_38_18_29204
686,502.0,11_38_18_29238
687,502.0,11_38_18_29287
688,502.0,11_38_18_29321
689,502.0,11_38_18_29371
690,502.0,11_38_18_29404
691,502.0,11_38_19_29454
692,502.0,11_38_19_29487
693,502.0,11_38_19_29520
694,502.0,11_38_19_29571
695,502.0,11_38_19_29620
696,502.0,11_38_19_29654
697,502.0,11_38_19_29687
698,502.0,11_38_19_29737
699,502.0,11_38_19_29771
700,503.0,11_38_19_29820
701,503.0,11_38_19_29854
702,502.0,11_38_19_29904
703,503.0,11_38_19_29937
704,502.0,11_38_19_29971
705,502.0,11_38_19_30021
706,503.0,11_38_19_30071
707,502.0,11_38_19_30105
708,502.0,11_38_19_30154
709,502.0,11_38_19_30187
710,502.0,11_38_19_30221
711,502.0,11_38_19_30271
712,502.0,11_38_19_30304
713,503.0,11_38_19_30354
714,502.0,11_38_19_30388
715,502.0,11_38_20_30437
716,502.0,11_38_20_30471
717,503.0,11_38_20_30521
718,502.0,11_38_20_30554
719,503.0,11_38_20_30604
720,503.0,11_38_20_30638
721,502.0,11_38_20_30687
722,503.0,11_38_20_30721
723,502.0,11_38_20_30755
724,502.0,11_38_20_30805
725,502.0,11_38_20_30837
726,502.0,11_38_20_30887
727,502.0,11_38_20_30921
728,502.0,11_38_20_30971
729,502.0,11_38_20_31004
730,502.0,11_38_20_31055
731,503.0,11_38_20_31089
732,502.0,11_38_20_31139
733,503.0,11_38_20_31172
734,502.0,11_38_20_31222
735,502.0,11_38_20_31256
736,502.0,11_38_20_31306
737,503.0,11_38_20_31339
738,503.0,11_38_20_31372
739,502.0,11_38_21_31422
740,503.0,11_38_21_31456
741,503.0,11_38_21_31506
742,502.0,11_38_21_31539
743,502.0,11_38_21_31589
744,503.0,11_38_21_31622
745,502.0,11_38_21_31673
746,502.0,11_38_21_31705
747,502.0,11_38_21_31755
748,502.0,11_38_21_31789
749,502.0,11_38_21_31839
750,502.0,11_38_21_31872
751,502.0,11_38_21_31906
752,502.0,11_38_21_31956
753,503.0,11_38_21_31989
754,502.0,11_38_21_32039
755,502.0,11_38_21_32072
756,503.0,11_38_21_32123
757,502.0,11_38_21_32156
758,502.0,11_38_21_32206
759,502.0,11_38_21_32239
760,503.0,11_38_21_32289
761,502.0,11_38_21_32322
762,502.0,11_38_21_32356
763,502.0,11_38_21_32406
764,502.0,11_38_22_32439
765,502.0,11_38_22_32489
766,502.0,11_38_22_32523
767,502.0,11_38_22_32572
768,502.0,11_38_22_32606
769,502.0,11_38_22_32656
770,502.0,11_38_22_32689
771,502.0,11_38_22_32739
772,502.0,11_38_22_32772
773,503.0,11_38_22_32822
774,502.0,11_38_22_32855
775,503.0,11_38_22_32906
776,502.0,11_38_22_32939
777,503.0,11_38_22_32989
778,502.0,11_38_22_33023
779,502.0,11_38_22_33056
780,503.0,11_38_22_33106
781,503.0,11_38_22_33139
782,503.0,11_38_22_33189
783,502.0,11_38_22_33222
784,503.0,11_38_22_33272
785,502.0,11_38_22_33306
786,502.0,11_38_22_33356
787,502.0,11_38_22_33389
788,502.0,11_38_23_33439
789,502.0,11_38_23_33472
790,502.0,11_38_23_33505
791,503.0,11_38_23_33556
792,502.0,11_38_23_33589
793,502.0,11_38_23_33640
794,503.0,11_38_23_33673
795,502.0,11_38_23_33722
796,503.0,11_38_23_33756
797,503.0,11_38_23_33805
798,503.0,11_38_23_33839
799,503.0,11_38_23_33890
800,503.0,11_38_23_33922
801,503.0,11_38_23_33956
802,503.0,11_38_23_34005
803,502.0,11_38_23_34056
804,502.0,11_38_23_34089
805,502.0,11_38_23_34139
806,502.0,11_38_23_34173
807,502.0,11_38_23_34206
808,503.0,11_38_23_34256
809,502.0,11_38_23_34290
810,503.0,11_38_23_34340
811,502.0,11_38_23_34373
812,503.0,11_38_24_34423
813,502.0,11_38_24_34455
814,503.0,11_38_24_34506
815,503.0,11_38_24_34539
816,502.0,11_38_24_34590
817,503.0,11_38_24_34623
818,502.0,11_38_24_34672
819,503.0,11_38_24_34706
820,502.0,11_38_24_34739
821,502.0,11_38_24_34790
822,502.0,11_38_24_34823
823,502.0,11_38_24_34872
824,502.0,11_38_24_34906
825,502.0,11_38_24_34956
826,502.0,11_38_24_34989
827,502.0,11_38_24_35039
828,502.0,11_38_24_35073
829,502.0,11_38_24_35122
830,502.0,11_38_24_35156
831,503.0,11_38_24_35189
832,503.0,11_38_24_35239
833,503.0,11_38_24_35273
834,502.0,11_38_24_35322
835,502.0,11_38_24_35356
836,503.0,11_38_24_35406
837,503.0,11_38_25_35439
838,502.0,11_38_25_35489
839,503.0,11_38_25_35523
840,502.0,11_38_25_35573
841,502.0,11_38_25_35606
842,502.0,11_38_25_35656
843,502.0,11_38_25_35689
844,502.0,11_38_25_35739
845,502.0,11_38_25_35772
846,502.0,11_38_25_35823
847,503.0,11_38_25_35856
848,503.0,11_38_25_35906
849,502.0,11_38_25_35939
850,503.0,11_38_25_35973
851,502.0,11_38_25_36023
852,502.0,11_38_25_36056
853,503.0,11_38_25_36106
854,503.0,11_38_25_36139
855,503.0,11_38_25_36189
856,503.0,11_38_25_36222
857,503.0,11_38_25_36272
858,502.0,11_38_25_36306
859,502.0,11_38_25_36356
860,502.0,11_38_25_36390
861,502.0,11_38_26_36423
862,502.0,11_38_26_36472
863,502.0,11_38_26_36505
864,502.0,11_38_26_36556
865,503.0,11_38_26_36606
866,502.0,11_38_26_36639
867,502.0,11_38_26_36672
868,502.0,11_38_26_36723
869,502.0,11_38_26_36756
870,503.0,11_38_26_36806
871,502.0,11_38_26_36839
872,502.0,11_38_26_36889
873,503.0,11_38_26_36923
874,503.0,11_38_26_36956
875,503.0,11_38_26_37006
876,502.0,11_38_26_37056
877,502.0,11_38_26_37089
878,502.0,11_38_26_37123
879,502.0,11_38_26_37173
880,502.0,11_38_26_37206
881,502.0,11_38_26_37256
882,503.0,11_38_26_37289
883,502.0,11_38_26_37339
884,502.0,11_38_26_37373
885,503.0,11_38_27_37423
886,502.0,11_38_27_37456
887,503.0,11_38_27_37506
888,502.0,11_38_27_37540
889,503.0,11_38_27_37590
890,503.0,11_38_27_37623
891,503.0,11_38_27_37656
892,503.0,11_38_27_37706
893,503.0,11_38_27_37740
894,502.0,11_38_27_37789
895,502.0,11_38_27_37823
896,503.0,11_38_27_37872
897,502.0,11_38_27_37906
898,502.0,11_38_27_37956
899,502.0,11_38_27_37989
900,502.0,11_38_27_38041
901,502.0,11_38_27_38072
902,502.0,11_38_27_38123
903,502.0,11_38_27_38156
904,502.0,11_38_27_38189
905,502.0,11_38_27_38239
906,502.0,11_38_27_38273
907,503.0,11_38_27_38323
908,502.0,11_38_27_38356
909,502.0,11_38_27_38406
910,503.0,11_38_28_38440
911,503.0,11_38_28_38489
912,502.0,11_38_28_38523
913,502.0,11_38_28_38573
914,503.0,11_38_28_38606
915,502.0,11_38_28_38656
916,502.0,11_38_28_38690
917,503.0,11_38_28_38739
918,502.0,11_38_28_38773
919,502.0,11_38_28_38823
920,502.0,11_38_28_38856
921,502.0,11_38_28_38889
922,502.0,11_38_28_38939
923,502.0,11_38_28_38973
924,502.0,11_38_28_39023
925,502.0,11_38_28_39056
926,503.0,11_38_28_39107
927,503.0,11_38_28_39140
928,502.0,11_38_28_39189
929,503.0,11_38_28_39223
930,503.0,11_38_28_39273
931,502.0,11_38_28_39306
932,502.0,11_38_28_39339
933,502.0,11_38_28_39389
934,502.0,11_38_29_39423
935,503.0,11_38_29_39473
936,502.0,11_38_29_39506
937,502.0,11_38_29_39556
938,502.0,11_38_29_39589
939,502.0,11_38_29_39639
940,502.0,11_38_29_39672
941,502.0,11_38_29_39723
942,503.0,11_38_29_39756
943,503.0,11_38_29_39806
944,503.0,11_38_29_39840
945,503.0,11_38_29_39889
946,502.0,11_38_29_39922
947,502.0,11_38_29_39973
948,503.0,11_38_29_40006
949,502.0,11_38_29_40040
950,502.0,11_38_29_40090
951,502.0,11_38_29_40123
952,503.0,11_38_29_40173
953,502.0,11_38_29_40206
954,502.0,11_38_29_40256
955,502.0,11_38_29_40290
956,502.0,11_38_29_40339
957,502.0,11_38_29_40372
958,502.0,11_38_30_40423
959,502.0,11_38_30_40456
960,502.0,11_38_30_40489
961,503.0,11_38_30_40540
962,502.0,11_38_30_40573
963,503.0,11_38_30_40623
964,502.0,11_38_30_40656
965,503.0,11_38_30_40706
966,502.0,11_38_30_40739
967,503.0,11_38_30_40789
968,502.0,11_38_30_40822
969,502.0,11_38_30_40873
970,502.0,11_38_30_40906
971,502.0,11_38_30_40956
972,502.0,11_38_30_40989
973,503.0,11_38_30_41039
974,502.0,11_38_30_41073
975,502.0,11_38_30_41123
976,502.0,11_38_30_41156
977,502.0,11_38_30_41190
978,503.0,11_38_30_41240
979,502.0,11_38_30_41273
980,502.0,11_38_30_41323
981,503.0,11_38_30_41356
982,502.0,11_38_30_41406
983,502.0,11_38_31_41440
984,503.0,11_38_31_41490
985,502.0,11_38_31_41523
986,503.0,11_38_31_41573
987,502.0,11_38_31_41606
988,502.0,11_38_31_41656
989,502.0,11_38_31_41690
990,503.0,11_38_31_41723
991,502.0,11_38_31_41773
992,502.0,11_38_31_41807
993,502.0,11_38_31_41856
994,502.0,11_38_31_41890
995,502.0,11_38_31_41939
996,503.0,11_38_31_41973
997,502.0,11_38_31_42023
998,503.0,11_38_31_42057
999,502.0,11_38_31_42106
1000,502.0,11_38_31_42139
1001,502.0,11_38_31_42189
1002,503.0,11_38_31_42223
1003,503.0,11_38_31_42256
1004,503.0,11_38_31_42306
1005,502.0,11_38_31_42340
1006,502.0,11_38_31_42390
1007,502.0,11_38_32_42439
1008,502.0,11_38_32_42473
1009,502.0,11_38_32_42506
1010,502.0,11_38_32_42556
1011,502.0,11_38_32_42589
1012,502.0,11_38_32_42640
1013,502.0,11_38_32_42673
1014,502.0,11_38_32_42723
1015,502.0,11_38_32_42756
1016,503.0,11_38_32_42806
1017,503.0,11_38_32_42839
1018,502.0,11_38_32_42890
1019,502.0,11_38_32_42923
1020,503.0,11_38_32_42956
1021,503.0,11_38_32_43006
1022,503.0,11_38_32_43040
1023,503.0,11_38_32_43089
1024,503.0,11_38_32_43123
1025,502.0,11_38_32_43172
1026,502.0,11_38_32_43207
1027,503.0,11_38_32_43256
1028,502.0,11_38_32_43290
1029,502.0,11_38_32_43340
1030,502.0,11_38_32_43373
1031,502.0,11_38_32_43406
1032,502.0,11_38_33_43456
1033,502.0,11_38_33_43490
1034,502.0,11_38_33_43540
1035,503.0,11_38_33_43573
1036,502.0,11_38_33_43623
1037,502.0,11_38_33_43656
1038,503.0,11_38_33_43707
1039,502.0,11_38_33_43740
1040,503.0,11_38_33_43790
1041,502.0,11_38_33_43823
1042,503.0,11_38_33_43856
1043,502.0,11_38_33_43907
1044,503.0,11_38_33_43956
1045,502.0,11_38_33_43989
1046,503.0,11_38_33_44040
1047,502.0,11_38_33_44073
1048,502.0,11_38_33_44106
1049,503.0,11_38_33_44156
1050,502.0,11_38_33_44190
1051,502.0,11_38_33_44240
1052,503.0,11_38_33_44273
1053,502.0,11_38_33_44323
1054,502.0,11_38_33_44356
1055,502.0,11_38_33_44407
1056,502.0,11_38_34_44440
1057,503.0,11_38_34_44478
1058,502.0,11_38_34_44529
1059,502.0,11_38_34_44562
1060,502.0,11_38_34_44612
1061,503.0,11_38_34_44645
1062,503.0,11_38_34_44695
1063,502.0,11_38_34_44728
1064,502.0,11_38_34_44762
1065,502.0,11_38_34_44812
1066,502.0,11_38_34_44845
1067,502.0,11_38_34_44895
1068,502.0,11_38_34_44929
1069,502.0,11_38_34_44979
1070,502.0,11_38_34_45012
1071,503.0,11_38_34_45062
1072,502.0,11_38_34_45095
1073,503.0,11_38_34_45146
1074,503.0,11_38_34_45178
1075,503.0,11_38_34_45229
1076,503.0,11_38_34_45262
1077,502.0,11_38_34_45295
1078,502.0,11_38_34_45346
1079,502.0,11_38_34_45395
1080,502.0,11_38_35_45428
1081,502.0,11_38_35_45479
1082,502.0,11_38_35_45512
1083,502.0,11_38_35_45546
1084,502.0,11_38_35_45595
1085,502.0,11_38_35_45628
1086,502.0,11_38_35_45678
1087,503.0,11_38_35_45712
1088,502.0,11_38_35_45761
1089,502.0,11_38_35_45795
1090,503.0,11_38_35_45846
1091,502.0,11_38_35_45879
1092,502.0,11_38_35_45929
1093,502.0,11_38_35_45962
1094,503.0,11_38_35_46012
1095,503.0,11_38_35_46046
1096,502.0,11_38_35_46079
1097,502.0,11_38_35_46128
1098,502.0,11_38_35_46162
1099,502.0,11_38_35_46212
1100,502.0,11_38_35_46245
1101,502.0,11_38_35_46295
1102,502.0,11_38_35_46329
1103,502.0,11_38_35_46378
1104,502.0,11_38_35_46412
1105,502.0,11_38_36_46445
1106,503.0,11_38_36_46495
1107,502.0,11_38_36_46529
1108,503.0,11_38_36_46579
1109,503.0,11_38_36_46612
1110,502.0,11_38_36_46662
1111,502.0,11_38_36_46695
1112,503.0,11_38_36_46745
1113,502.0,11_38_36_46779
1114,502.0,11_38_36_46829
1115,503.0,11_38_36_46862
1116,502.0,11_38_36_46912
1117,502.0,11_38_36_46946
1118,502.0,11_38_36_46995
1119,502.0,11_38_36_47029
1120,502.0,11_38_36_47078
1121,502.0,11_38_36_47112
1122,502.0,11_38_36_47162
1123,502.0,11_38_36_47196
1124,502.0,11_38_36_47229
1125,503.0,11_38_36_47279
1126,503.0,11_38_36_47312
1127,503.0,11_38_36_47362
1128,502.0,11_38_36_47395
1129,502.0,11_38_37_47445
1130,502.0,11_38_37_47479
1131,503.0,11_38_37_47528
1132,503.0,11_38_37_47562
1133,503.0,11_38_37_47612
1134,502.0,11_38_37_47646
1135,502.0,11_38_37_47696
1136,503.0,11_38_37_47729
1137,503.0,11_38_37_47762
1138,502.0,11_38_37_47812
1139,503.0,11_38_37_47845
1140,502.0,11_38_37_47895
1141,502.0,11_38_37_47928
1142,502.0,11_38_37_47979
1143,502.0,11_38_37_48012
1144,503.0,11_38_37_48062
1145,502.0,11_38_37_48095
1146,503.0,11_38_37_48145
1147,503.0,11_38_37_48178
1148,503.0,11_38_37_48229
1149,503.0,11_38_37_48262
1150,503.0,11_38_37_48312
1151,503.0,11_38_37_48346
1152,503.0,11_38_37_48396
1153,502.0,11_38_38_48429
1154,502.0,11_38_38_48462
1155,502.0,11_38_38_48512
1156,502.0,11_38_38_48545
1157,502.0,11_38_38_48595
1158,502.0,11_38_38_48629
1159,502.0,11_38_38_48679
1160,502.0,11_38_38_48712
1161,502.0,11_38_38_48762
1162,503.0,11_38_38_48796
1163,503.0,11_38_38_48846
1164,502.0,11_38_38_48879
1165,502.0,11_38_38_48912
1166,502.0,11_38_38_48962
1167,503.0,11_38_38_48996
1168,502.0,11_38_38_49045
1169,503.0,11_38_38_49079
1170,503.0,11_38_38_49129
1171,502.0,11_38_38_49163
1172,502.0,11_38_38_49212
1173,502.0,11_38_38_49246
1174,502.0,11_38_38_49295
1175,502.0,11_38_38_49329
1176,502.0,11_38_38_49379
1177,502.0,11_38_38_49412
1178,502.0,11_38_39_49462
1179,502.0,11_38_39_49495
1180,503.0,11_38_39_49545
1181,502.0,11_38_39_49578
1182,502.0,11_38_39_49629
1183,503.0,11_38_39_49662
1184,503.0,11_38_39_49696
1185,503.0,11_38_39_49745
1186,503.0,11_38_39_49779
1187,502.0,11_38_39_49829
1188,502.0,11_38_39_49862
1189,503.0,11_38_39_49912
1190,502.0,11_38_39_49945
1191,502.0,11_38_39_49995
1192,502.0,11_38_39_50029
1193,502.0,11_38_39_50079
1194,502.0,11_38_39_50112
1195,502.0,11_38_39_50145
1196,502.0,11_38_39_50196
1197,502.0,11_38_39_50229
1198,503.0,11_38_39_50279
1199,503.0,11_38_39_50312
1200,502.0,11_38_39_50362
1201,503.0,11_38_39_50396
1202,502.0,11_38_40_50446
1203,502.0,11_38_40_50478
1204,502.0,11_38_40_50529
1205,502.0,11_38_40_50562
1206,502.0,11_38_40_50595
1207,503.0,11_38_40_50646
1208,502.0,11_38_40_50679
1209,502.0,11_38_40_50729
1210,502.0,11_38_40_50762
1211,502.0,11_38_40_50812
1212,503.0,11_38_40_50846
1213,502.0,11_38_40_50896
1214,502.0,11_38_40_50928
1215,502.0,11_38_40_50979
1216,502.0,11_38_40_51012
1217,502.0,11_38_40_51063
1218,503.0,11_38_40_51095
1219,502.0,11_38_40_51145
1220,503.0,11_38_40_51179
1221,503.0,11_38_40_51229
1222,503.0,11_38_40_51262
1223,502.0,11_38_40_51295
1224,503.0,11_38_40_51346
1225,502.0,11_38_40_51379
1226,503.0,11_38_41_51429
1227,502.0,11_38_41_51462
1228,502.0,11_38_41_51512
1229,502.0,11_38_41_51546
1230,502.0,11_38_41_51595
1231,502.0,11_38_41_51629
1232,502.0,11_38_41_51679
1233,502.0,11_38_41_51712
1234,502.0,11_38_41_51746
1235,502.0,11_38_41_51795
1236,502.0,11_38_41_51829
1237,503.0,11_38_41_51879
1238,502.0,11_38_41_51912
1239,502.0,11_38_41_51963
1240,502.0,11_38_41_51996
1241,503.0,11_38_41_52046
1242,503.0,11_38_41_52079
1243,502.0,11_38_41_52129
1244,503.0,11_38_41_52163
1245,502.0,11_38_41_52213
1246,502.0,11_38_41_52246
1247,502.0,11_38_41_52295
1248,502.0,11_38_41_52329
1249,502.0,11_38_41_52379
1250,502.0,11_38_41_52413
1251,502.0,11_38_42_52463
1252,502.0,11_38_42_52496
1253,502.0,11_38_42_52529
1254,502.0,11_38_42_52579
1255,502.0,11_38_42_52612
1256,503.0,11_38_42_52663
1257,502.0,11_38_42_52695
1258,502.0,11_38_42_52746
1259,502.0,11_38_42_52779
1260,502.0,11_38_42_52829
1261,503.0,11_38_42_52863
1262,502.0,11_38_42_52912
1263,502.0,11_38_42_52945
1264,502.0,11_38_42_52996
1265,502.0,11_38_42_53029
1266,502.0,11_38_42_53062
1267,502.0,11_38_42_53112
1268,502.0,11_38_42_53146
1269,502.0,11_38_42_53195
1270,502.0,11_38_42_53229
1271,502.0,11_38_42_53279
1272,503.0,11_38_42_53313
1273,502.0,11_38_42_53362
1274,503.0,11_38_42_53396
1275,502.0,11_38_43_53445
1276,503.0,11_38_43_53479
1277,503.0,11_38_43_53513
1278,503.0,11_38_43_53563
1279,503.0,11_38_43_53597
1280,502.0,11_38_43_53646
1281,502.0,11_38_43_53696
1282,502.0,11_38_43_53729
1283,502.0,11_38_43_53762
1284,502.0,11_38_43_53812
1285,502.0,11_38_43_53846
1286,502.0,11_38_43_53896
1287,502.0,11_38_43_53929
1288,502.0,11_38_43_53979
1289,502.0,11_38_43_54012
1290,502.0,11_38_43_54063
1291,502.0,11_38_43_54095
1292,503.0,11_38_43_54145
1293,502.0,11_38_43_54179
1294,502.0,11_38_43_54212
1295,502.0,11_38_43_54263
1296,503.0,11_38_43_54296
1297,503.0,11_38_43_54345
1298,503.0,11_38_43_54379
1299,502.0,11_38_44_54429
1300,502.0,11_38_44_54463
1301,502.0,11_38_44_54513
1302,502.0,11_38_44_54546
1303,502.0,11_38_44_54596
1304,502.0,11_38_44_54629
1305,502.0,11_38_44_54662
1306,502.0,11_38_44_54712
1307,502.0,11_38_44_54746
1308,502.0,11_38_44_54796
1309,502.0,11_38_44_54830
1310,502.0,11_38_44_54879
1311,503.0,11_38_44_54913
1312,503.0,11_38_44_54963
1313,502.0,11_38_44_54996
1314,503.0,11_38_44_55045
1315,502.0,11_38_44_55079
1316,503.0,11_38_44_55129
1317,503.0,11_38_44_55163
1318,502.0,11_38_44_55212
1319,502.0,11_38_44_55246
1320,502.0,11_38_44_55296
1321,502.0,11_38_44_55329
1322,502.0,11_38_44_55379
1323,502.0,11_38_44_55412
1324,502.0,11_38_45_55446
1325,503.0,11_38_45_55495
1326,503.0,11_38_45_55530
1327,502.0,11_38_45_55579
1328,502.0,11_38_45_55613
1329,503.0,11_38_45_55662
1330,502.0,11_38_45_55696
1331,503.0,11_38_45_55746
1332,503.0,11_38_45_55779
1333,502.0,11_38_45_55829
1334,502.0,11_38_45_55863
1335,503.0,11_38_45_55912
1336,502.0,11_38_45_55946
1337,502.0,11_38_45_55979
1338,502.0,11_38_45_56029
1339,502.0,11_38_45_56062
1340,502.0,11_38_45_56113
1341,502.0,11_38_45_56146
1342,502.0,11_38_45_56196
1343,502.0,11_38_45_56230
1344,502.0,11_38_45_56279
1345,503.0,11_38_45_56312
1346,502.0,11_38_45_56363
1347,502.0,11_38_45_56396
1348,503.0,11_38_46_56429
1349,503.0,11_38_46_56479
1350,503.0,11_38_46_56513
1351,503.0,11_38_46_56562
1352,503.0,11_38_46_56596
1353,502.0,11_38_46_56646
1354,502.0,11_38_46_56679
1355,502.0,11_38_46_56729
1356,502.0,11_38_46_56762
1357,502.0,11_38_46_56813
1358,502.0,11_38_46_56846
1359,502.0,11_38_46_56896
1360,502.0,11_38_46_56929
1361,502.0,11_38_46_56979
1362,502.0,11_38_46_57013
1363,502.0,11_38_46_57063
1364,502.0,11_38_46_57096
1365,502.0,11_38_46_57129
1366,502.0,11_38_46_57179
1367,502.0,11_38_46_57212
1368,503.0,11_38_46_57263
1369,502.0,11_38_46_57296
1370,502.0,11_38_46_57346
1371,502.0,11_38_46_57380
1372,502.0,11_38_47_57430
1373,502.0,11_38_47_57462
1374,502.0,11_38_47_57513
1375,502.0,11_38_47_57546
1376,502.0,11_38_47_57596
1377,502.0,11_38_47_57630
1378,502.0,11_38_47_57662
1379,502.0,11_38_47_57713
1380,502.0,11_38_47_57763
1381,502.0,11_38_47_57796
1382,502.0,11_38_47_57829
1383,502.0,11_38_47_57879
1384,503.0,11_38_47_57912
1385,502.0,11_38_47_57963
1386,503.0,11_38_47_57996
1387,502.0,11_38_47_58046
1388,503.0,11_38_47_58079
1389,502.0,11_38_47_58129
1390,503.0,11_38_47_58163
1391,503.0,11_38_47_58213
1392,502.0,11_38_47_58246
1393,502.0,11_38_47_58296
1394,502.0,11_38_47_58329
1395,502.0,11_38_47_58363
1396,502.0,11_38_47_58413
1397,502.0,11_38_48_58446
1398,502.0,11_38_48_58496
1399,503.0,11_38_48_58529
1400,503.0,11_38_48_58580
1401,502.0,11_38_48_58613
1402,502.0,11_38_48_58663
1403,502.0,11_38_48_58696
1404,503.0,11_38_48_58746
1405,502.0,11_38_48_58779
1406,502.0,11_38_48_58813
1407,502.0,11_38_48_58862
1408,503.0,11_38_48_58896
1409,503.0,11_38_48_58946
1410,502.0,11_38_48_58980
1411,502.0,11_38_48_59030
1412,502.0,11_38_48_59062
1413,502.0,11_38_48_59112
1414,502.0,11_38_48_59146
1415,502.0,11_38_48_59196
1416,502.0,11_38_48_59229
1417,503.0,11_38_48_59279
1418,502.0,11_38_48_59313
1419,502.0,11_38_48_59363
1420,502.0,11_38_48_59396
1421,502.0,11_38_49_59446
1422,503.0,11_38_49_59479
1423,502.0,11_38_49_59529
1424,503.0,11_38_49_59563
1425,503.0,11_38_49_59596
1426,502.0,11_38_49_59646
1427,503.0,11_38_49_59679
1428,502.0,11_38_49_59729
1429,502.0,11_38_49_59763
1430,503.0,11_38_49_59812
1431,502.0,11_38_49_59846
1432,502.0,11_38_49_59896
1433,502.0,11_38_49_59930
1434,502.0,11_38_49_59979
1435,502.0,11_38_49_60013
1436,502.0,11_38_49_60046
1437,502.0,11_38_49_60096
1438,502.0,11_38_49_60130
1439,502.0,11_38_49_60180
1440,502.0,11_38_49_60212
1441,503.0,11_38_49_60263
1442,503.0,11_38_49_60296
1443,502.0,11_38_49_60346
1444,502.0,11_38_49_60380
1445,502.0,11_38_50_60429
1446,502.0,11_38_50_60462
1447,503.0,11_38_50_60512
1448,503.0,11_38_50_60546
1449,502.0,11_38_50_60580
1450,502.0,11_38_50_60629
1451,502.0,11_38_50_60680
1452,502.0,11_38_50_60713
1453,502.0,11_38_50_60763
1454,502.0,11_38_50_60796
1455,502.0,11_38_50_60830
1456,502.0,11_38_50_60880
1457,503.0,11_38_50_60913
1458,502.0,11_38_50_60963
1459,502.0,11_38_50_60996
1460,502.0,11_38_50_61046
1461,502.0,11_38_50_61082
1462,502.0,11_38_50_61118
1463,502.0,11_38_50_61168
1464,503.0,11_38_50_61201
1465,503.0,11_38_50_61251
1466,502.0,11_38_50_61285
1467,502.0,11_38_50_61334
1468,503.0,11_38_50_61368
1469,502.0,11_38_50_61417
1470,502.0,11_38_51_61451
1471,502.0,11_38_51_61485
1472,502.0,11_38_51_61534
1473,502.0,11_38_51_61568
1474,503.0,11_38_51_61617
1475,502.0,11_38_51_61650
1476,502.0,11_38_51_61701
1477,502.0,11_38_51_61734
1478,502.0,11_38_51_61784
1479,502.0,11_38_51_61817
1480,502.0,11_38_51_61868
1481,502.0,11_38_51_61901
1482,502.0,11_38_51_61934
1483,502.0,11_38_51_61984
1484,503.0,11_38_51_62018
1485,503.0,11_38_51_62067
1486,502.0,11_38_51_62101
1487,502.0,11_38_51_62151
1488,502.0,11_38_51_62185
1489,502.0,11_38_51_62234
1490,502.0,11_38_51_62268
1491,502.0,11_38_51_62317
1492,502.0,11_38_51_62351
1493,502.0,11_38_51_62401
1494,502.0,11_38_52_62434
1495,502.0,11_38_52_62484
1496,502.0,11_38_52_62518
1497,502.0,11_38_52_62568
1498,502.0,11_38_52_62601
1499,503.0,11_38_52_62635
1500,503.0,11_38_52_62684
1501,503.0,11_38_52_62718
1502,502.0,11_38_52_62767
1503,503.0,11_38_52_62801
1504,502.0,11_38_52_62852
1505,502.0,11_38_52_62885
1506,502.0,11_38_52_62934
1507,502.0,11_38_52_62968
1508,502.0,11_38_52_63017
1509,502.0,11_38_52_63051
1510,502.0,11_38_52_63085
1511,502.0,11_38_52_63134
1512,502.0,11_38_52_63168
1513,502.0,11_38_52_63217
1514,503.0,11_38_52_63251
1515,503.0,11_38_52_63301
1516,503.0,11_38_52_63334
1517,503.0,11_38_52_63385
1518,502.0,11_38_53_63418
1519,503.0,11_38_53_63468
1520,502.0,11_38_53_63501
1521,502.0,11_38_53_63551
1522,503.0,11_38_53_63584
1523,502.0,11_38_53_63618
1524,502.0,11_38_53_63668
1525,502.0,11_38_53_63717
1526,502.0,11_38_53_63751
1527,502.0,11_38_53_63801
1528,502.0,11_38_53_63834
1529,502.0,11_38_53_63868
1530,502.0,11_38_53_63918
1531,502.0,11_38_53_63951
1532,502.0,11_38_53_64001
1533,502.0,11_38_53_64034
1534,502.0,11_38_53_64084
1535,502.0,11_38_53_64117
1536,503.0,11_38_53_64168
1537,503.0,11_38_53_64201
1538,503.0,11_38_53_64251
1539,502.0,11_38_53_64284
1540,502.0,11_38_53_64318
1541,503.0,11_38_53_64368
1542,502.0,11_38_53_64401
1543,502.0,11_38_54_64451
1544,503.0,11_38_54_64484
1545,502.0,11_38_54_64535
1546,502.0,11_38_54_64568
1547,502.0,11_38_54_64617
1548,502.0,11_38_54_64651
1549,502.0,11_38_54_64701
1550,502.0,11_38_54_64734
1551,502.0,11_38_54_64785
1552,502.0,11_38_54_64818
1553,502.0,11_38_54_64851
1554,502.0,11_38_54_64901
1555,503.0,11_38_54_64935
1556,503.0,11_38_54_64985
1557,502.0,11_38_54_65018
1558,503.0,11_38_54_65067
1559,502.0,11_38_54_65101
1560,502.0,11_38_54_65152
1561,502.0,11_38_54_65184
1562,502.0,11_38_54_65235
1563,502.0,11_38_54_65268
1564,502.0,11_38_54_65318
1565,502.0,11_38_54_65352
1566,502.0,11_38_54_65401
1567,502.0,11_38_55_65435
1568,502.0,11_38_55_65484
1569,502.0,11_38_55_65518
1570,502.0,11_38_55_65551
1571,502.0,11_38_55_65602
1572,502.0,11_38_55_65634
1573,502.0,11_38_55_65684
1574,503.0,11_38_55_65718
1575,503.0,11_38_55_65768
1576,502.0,11_38_55_65801
1577,503.0,11_38_55_65851
1578,502.0,11_38_55_65885
1579,503.0,11_38_55_65934
1580,502.0,11_38_55_65968
1581,502.0,11_38_55_66002
1582,502.0,11_38_55_66052
1583,502.0,11_38_55_66085
1584,503.0,11_38_55_66135
1585,503.0,11_38_55_66167
1586,502.0,11_38_55_66218
1587,502.0,11_38_55_66268
1588,502.0,11_38_55_66301
1589,503.0,11_38_55_66335
1590,503.0,11_38_55_66385
1591,502.0,11_38_56_66418
1592,502.0,11_38_56_66468
1593,502.0,11_38_56_66501
1594,503.0,11_38_56_66551
1595,502.0,11_38_56_66584
1596,502.0,11_38_56_66634
1597,503.0,11_38_56_66668
1598,502.0,11_38_56_66718
1599,502.0,11_38_56_66751
1600,502.0,11_38_56_66784
1601,502.0,11_38_56_66835
1602,502.0,11_38_56_66868
1603,502.0,11_38_56_66918
1604,502.0,11_38_56_66951
1605,502.0,11_38_56_67001
1606,502.0,11_38_56_67035
1607,502.0,11_38_56_67085
1608,502.0,11_38_56_67118
1609,503.0,11_38_56_67168
1610,502.0,11_38_56_67201
1611,503.0,11_38_56_67234
1612,503.0,11_38_56_67284
1613,503.0,11_38_56_67318
1614,502.0,11_38_56_67368
1615,503.0,11_38_56_67401
1616,502.0,11_38_57_67452
1617,503.0,11_38_57_67484
1618,502.0,11_38_57_67534
1619,502.0,11_38_57_67568
1620,502.0,11_38_57_67618
1621,502.0,11_38_57_67651
1622,502.0,11_38_57_67702
1623,502.0,11_38_57_67735
1624,502.0,11_38_57_67785
1625,502.0,11_38_57_67818
1626,502.0,11_38_57_67868
1627,503.0,11_38_57_67902
1628,502.0,11_38_57_67935
1629,503.0,11_38_57_67985
1630,502.0,11_38_57_68018
1631,503.0,11_38_57_68068
1632,503.0,11_38_57_68101
1633,502.0,11_38_57_68152
1634,502.0,11_38_57_68185
1635,503.0,11_38_57_68235
1636,503.0,11_38_57_68268
1637,502.0,11_38_57_68318
1638,502.0,11_38_57_68351
1639,502.0,11_38_57_68402
1640,502.0,11_38_58_68435
1641,502.0,11_38_58_68468
1642,502.0,11_38_58_68518
1643,502.0,11_38_58_68551
1644,503.0,11_38_58_68601
1645,502.0,11_38_58_68635
1646,503.0,11_38_58_68684
1647,502.0,11_38_58_68718
1648,502.0,11_38_58_68769
1649,503.0,11_38_58_68801
1650,502.0,11_38_58_68851
1651,502.0,11_38_58_68884
1652,503.0,11_38_58_68918
1653,502.0,11_38_58_68968
1654,502.0,11_38_58_69002
1655,503.0,11_38_58_69051
1656,502.0,11_38_58_69084
1657,502.0,11_38_58_69135
1658,502.0,11_38_58_69168
1659,502.0,11_38_58_69218
1660,502.0,11_38_58_69252
1661,502.0,11_38_58_69301
1662,502.0,11_38_58_69335
1663,502.0,11_38_58_69384
1664,502.0,11_38_59_69418
1665,502.0,11_38_59_69468
1666,503.0,11_38_59_69501
1667,502.0,11_38_59_69551
1668,502.0,11_38_59_69584
1669,502.0,11_38_59_69618
1670,503.0,11_38_59_69668
1671,503.0,11_38_59_69702
1672,503.0,11_38_59_69751
1673,503.0,11_38_59_69785
1674,502.0,11_38_59_69835
1675,502.0,11_38_59_69868
1676,502.0,11_38_59_69918
1677,502.0,11_38_59_69952
1678,502.0,11_38_59_70001
1679,502.0,11_38_59_70034
1680,502.0,11_38_59_70085
1681,502.0,11_38_59_70118
1682,502.0,11_38_59_70151
1683,502.0,11_38_59_70202
1684,503.0,11_38_59_70235
1685,503.0,11_38_59_70285
1686,503.0,11_38_59_70318
1687,503.0,11_38_59_70368
1688,502.0,11_38_59_70402
1689,503.0,11_39_0_70451
1690,502.0,11_39_0_70485
1691,503.0,11_39_0_70534
1692,502.0,11_39_0_70568
1693,503.0,11_39_0_70618
1694,502.0,11_39_0_70651
1695,503.0,11_39_0_70701
1696,502.0,11_39_0_70735
1697,502.0,11_39_0_70785
1698,502.0,11_39_0_70818
1699,502.0,11_39_0_70851
1700,502.0,11_39_0_70901
1701,502.0,11_39_0_70935
1702,503.0,11_39_0_70985
1703,503.0,11_39_0_71018
1704,503.0,11_39_0_71068
1705,502.0,11_39_0_71101
1706,502.0,11_39_0_71151
1707,502.0,11_39_0_71184
1708,502.0,11_39_0_71235
1709,502.0,11_39_0_71268
1710,503.0,11_39_0_71318
1711,502.0,11_39_0_71352
1712,502.0,11_39_0_71385
1713,502.0,11_39_1_71434
1714,502.0,11_39_1_71468
1715,502.0,11_39_1_71518
1716,502.0,11_39_1_71552
1717,502.0,11_39_1_71601
1718,502.0,11_39_1_71635
1719,502.0,11_39_1_71685
1720,502.0,11_39_1_71718
1721,502.0,11_39_1_71768
1722,502.0,11_39_1_71802
1723,502.0,11_39_1_71835
1724,502.0,11_39_1_71885
1725,503.0,11_39_1_71918
1726,503.0,11_39_1_71969
1727,502.0,11_39_1_72002
1728,503.0,11_39_1_72051
1729,503.0,11_39_1_72085
1730,502.0,11_39_1_72135
1731,502.0,11_39_1_72168
1732,502.0,11_39_1_72219
1733,502.0,11_39_1_72251
1734,502.0,11_39_1_72301
1735,502.0,11_39_1_72335
1736,501.0,11_39_1_72385
1737,502.0,11_39_2_72418
1738,502.0,11_39_2_72468
1739,502.0,11_39_2_72502
1740,502.0,11_39_2_72535
1741,502.0,11_39_2_72585
1742,502.0,11_39_2_72618
1743,502.0,11_39_2_72668
1744,503.0,11_39_2_72702
1745,502.0,11_39_2_72751
1746,503.0,11_39_2_72785
1747,503.0,11_39_2_72835
1748,502.0,11_39_2_72868
1749,502.0,11_39_2_72918
1750,502.0,11_39_2_72951
1751,502.0,11_39_2_72985
1752,502.0,11_39_2_73035
1753,502.0,11_39_2_73068
1754,502.0,11_39_2_73118
1755,502.0,11_39_2_73152
1756,502.0,11_39_2_73201
1757,502.0,11_39_2_73252
1758,502.0,11_39_2_73285
1759,502.0,11_39_2_73318
1760,503.0,11_39_2_73368
1761,502.0,11_39_2_73401
1762,503.0,11_39_3_73452
1763,502.0,11_39_3_73485
1764,502.0,11_39_3_73535
1765,503.0,11_39_3_73569
1766,502.0,11_39_3_73601
1767,502.0,11_39_3_73652
1768,502.0,11_39_3_73702
1769,502.0,11_39_3_73735
1770,502.0,11_39_3_73768
1771,502.0,11_39_3_73819
1772,502.0,11_39_3_73851
1773,502.0,11_39_3_73902
1774,502.0,11_39_3_73935
1775,502.0,11_39_3_73985
1776,502.0,11_39_3_74019
1777,502.0,11_39_3_74069
1778,502.0,11_39_3_74102
1779,502.0,11_39_3_74152
1780,502.0,11_39_3_74185
1781,503.0,11_39_3_74235
1782,502.0,11_39_3_74269
1783,502.0,11_39_3_74302
1784,502.0,11_39_3_74351
1785,502.0,11_39_3_74385
1786,502.0,11_39_4_74435
1787,502.0,11_39_4_74468
1788,502.0,11_39_4_74519
1789,502.0,11_39_4_74552
1790,502.0,11_39_4_74602
1791,501.0,11_39_4_74635
1792,502.0,11_39_4_74685
1793,502.0,11_39_4_74719
1794,502.0,11_39_4_74768
1795,502.0,11_39_4_74802
1796,502.0,11_39_4_74852
1797,503.0,11_39_4_74885
1798,502.0,11_39_4_74936
1799,502.0,11_39_4_74968
1800,502.0,11_39_4_75002
1801,503.0,11_39_4_75054
1802,502.0,11_39_4_75085
1803,503.0,11_39_4_75135
1804,502.0,11_39_4_75169
1805,502.0,11_39_4_75219
1806,502.0,11_39_4_75251
1807,502.0,11_39_4_75301
1808,502.0,11_39_4_75335
1809,502.0,11_39_4_75385
1810,502.0,11_39_5_75419
1811,502.0,11_39_5_75452
1812,502.0,11_39_5_75501
1813,502.0,11_39_5_75535
1814,502.0,11_39_5_75585
1815,502.0,11_39_5_75618
1816,502.0,11_39_5_75668
1817,502.0,11_39_5_75701
1818,502.0,11_39_5_75752
1819,502.0,11_39_5_75785
1820,502.0,11_39_5_75835
1821,502.0,11_39_5_75868
1822,502.0,11_39_5_75918
1823,502.0,11_39_5_75952
1824,502.0,11_39_5_75986
1825,502.0,11_39_5_76035
1826,503.0,11_39_5_76069
1827,502.0,11_39_5_76119
1828,502.0,11_39_5_76168
1829,501.0,11_39_5_76201
1830,502.0,11_39_5_76235
1831,502.0,11_39_5_76285
1832,502.0,11_39_5_76319
1833,502.0,11_39_5_76369
1834,502.0,11_39_5_76402
1835,502.0,11_39_6_76451
1836,502.0,11_39_6_76485
1837,502.0,11_39_6_76535
1838,502.0,11_39_6_76569
1839,502.0,11_39_6_76619
1840,502.0,11_39_6_76652
1841,502.0,11_39_6_76685
1842,502.0,11_39_6_76735
1843,502.0,11_39_6_76769
1844,502.0,11_39_6_76818
1845,502.0,11_39_6_76851
1846,502.0,11_39_6_76902
1847,501.0,11_39_6_76935
1848,502.0,11_39_6_76986
1849,502.0,11_39_6_77019
1850,502.0,11_39_6_77069
1851,502.0,11_39_6_77102
1852,502.0,11_39_6_77135
1853,502.0,11_39_6_77185
1854,502.0,11_39_6_77219
1855,502.0,11_39_6_77268
1856,503.0,11_39_6_77302
1857,502.0,11_39_6_77352
1858,502.0,11_39_6_77385
1859,502.0,11_39_7_77435
1860,502.0,11_39_7_77469
1861,502.0,11_39_7_77518
1862,502.0,11_39_7_77552
1863,502.0,11_39_7_77602
1864,502.0,11_39_7_77635
1865,502.0,11_39_7_77686
1866,502.0,11_39_7_77719
1867,502.0,11_39_7_77769
1868,501.0,11_39_7_77802
1869,502.0,11_39_7_77851
1870,502.0,11_39_7_77887
1871,502.0,11_39_7_77918
1872,502.0,11_39_7_77969
1873,502.0,11_39_7_78002
1874,502.0,11_39_7_78052
1875,502.0,11_39_7_78085
1876,502.0,11_39_7_78136
1877,503.0,11_39_7_78169
1878,502.0,11_39_7_78219
1879,502.0,11_39_7_78252
1880,502.0,11_39_7_78302
1881,502.0,11_39_7_78336
1882,502.0,11_39_7_78368
1883,502.0,11_39_8_78419
1884,502.0,11_39_8_78452
1885,502.0,11_39_8_78502
1886,502.0,11_39_8_78535
1887,502.0,11_39_8_78585
1888,502.0,11_39_8_78619
1889,502.0,11_39_8_78669
1890,502.0,11_39_8_78702
1891,503.0,11_39_8_78752
1892,502.0,11_39_8_78785
1893,503.0,11_39_8_78835
1894,502.0,11_39_8_78868
1895,503.0,11_39_8_78902
1896,502.0,11_39_8_78952
1897,502.0,11_39_8_78985
1898,502.0,11_39_8_79035
1899,502.0,11_39_8_79069
1900,502.0,11_39_8_79119
1901,502.0,11_39_8_79152
1902,502.0,11_39_8_79202
1903,502.0,11_39_8_79235
1904,502.0,11_39_8_79285
1905,502.0,11_39_8_79318
1906,502.0,11_39_8_79368
1907,502.0,11_39_8_79402
1908,502.0,11_39_9_79452
1909,502.0,11_39_9_79485
1910,502.0,11_39_9_79519
1911,502.0,11_39_9_79568
1912,503.0,11_39_9_79602
1913,502.0,11_39_9_79651
1914,502.0,11_39_9_79686
1915,503.0,11_39_9_79735
1916,502.0,11_39_9_79769
1917,502.0,11_39_9_79818
1918,502.0,11_39_9_79852
1919,502.0,11_39_9_79902
1920,502.0,11_39_9_79936
1921,502.0,11_39_9_79986
1922,502.0,11_39_9_80018
1923,502.0,11_39_9_80052
1924,502.0,11_39_9_80101
1925,502.0,11_39_9_80135
1926,502.0,11_39_9_80185
1927,502.0,11_39_9_80219
1928,502.0,11_39_9_80269
1929,503.0,11_39_9_80302
1930,502.0,11_39_9_80352
1931,502.0,11_39_9_80386
1932,502.0,11_39_10_80435
1933,502.0,11_39_10_80469
1934,502.0,11_39_10_80502
1935,503.0,11_39_10_80552
1936,502.0,11_39_10_80585
1937,502.0,11_39_10_80635
1938,502.0,11_39_10_80685
1939,502.0,11_39_10_80718
1940,502.0,11_39_10_80752
1941,502.0,11_39_10_80802
1942,501.0,11_39_10_80835
1943,502.0,11_39_10_80885
1944,502.0,11_39_10_80918
1945,502.0,11_39_10_80969
1946,502.0,11_39_10_81002
1947,502.0,11_39_10_81052
1948,502.0,11_39_10_81085
1949,502.0,11_39_10_81135
1950,502.0,11_39_10_81169
1951,503.0,11_39_10_81218
1952,502.0,11_39_10_81252
1953,502.0,11_39_10_81286
1954,502.0,11_39_10_81335
1955,502.0,11_39_10_81369
1956,502.0,11_39_11_81418
1957,502.0,11_39_11_81452
1958,502.0,11_39_11_81502
1959,502.0,11_39_11_81536
1960,502.0,11_39_11_81585
1961,502.0,11_39_11_81619
1962,502.0,11_39_11_81668
1963,501.0,11_39_11_81702
1964,502.0,11_39_11_81752
1965,502.0,11_39_11_81785
1966,502.0,11_39_11_81819
1967,502.0,11_39_11_81869
1968,502.0,11_39_11_81902
1969,503.0,11_39_11_81952
1970,502.0,11_39_11_81985
1971,502.0,11_39_11_82036
1972,502.0,11_39_11_82069
1973,502.0,11_39_11_82119
1974,502.0,11_39_11_82153
1975,502.0,11_39_11_82202
1976,502.0,11_39_11_82235
1977,502.0,11_39_11_82285
1978,502.0,11_39_11_82319
1979,502.0,11_39_11_82369
1980,502.0,11_39_11_82402
1981,502.0,11_39_12_82452
1982,502.0,11_39_12_82485
1983,502.0,11_39_12_82519
1984,502.0,11_39_12_82569
1985,502.0,11_39_12_82602
1986,502.0,11_39_12_82652
1987,502.0,11_39_12_82686
1988,502.0,11_39_12_82735
1989,502.0,11_39_12_82769
1990,502.0,11_39_12_82819
1991,502.0,11_39_12_82852
1992,502.0,11_39_12_82902
1993,502.0,11_39_12_82936
1994,502.0,11_39_12_82969
1995,502.0,11_39_12_83018
1996,502.0,11_39_12_83052
1997,502.0,11_39_12_83103
1998,502.0,11_39_12_83136
1999,502.0,11_39_12_83185
2000,502.0,11_39_12_83219
2001,502.0,11_39_12_83269
2002,502.0,11_39_12_83302
2003,502.0,11_39_12_83352
2004,502.0,11_39_12_83386
2005,503.0,11_39_13_83436
2006,503.0,11_39_13_83468
2007,503.0,11_39_13_83519
2008,502.0,11_39_13_83552
2009,502.0,11_39_13_83602
2010,503.0,11_39_13_83635
2011,503.0,11_39_13_83669
2012,502.0,11_39_13_83718
2013,502.0,11_39_13_83753
2014,502.0,11_39_13_83802
2015,502.0,11_39_13_83836
2016,502.0,11_39_13_83886
2017,501.0,11_39_13_83919
2018,502.0,11_39_13_83969
2019,502.0,11_39_13_84002
2020,502.0,11_39_13_84052
2021,502.0,11_39_13_84086
2022,502.0,11_39_13_84136
2023,502.0,11_39_13_84169
2024,503.0,11_39_13_84202
2025,502.0,11_39_13_84252
2026,503.0,11_39_13_84285
2027,502.0,11_39_13_84335
2028,503.0,11_39_13_84368
2029,502.0,11_39_14_84419
2030,502.0,11_39_14_84452
2031,503.0,11_39_14_84502
2032,502.0,11_39_14_84536
2033,503.0,11_39_14_84585
2034,502.0,11_39_14_84619
2035,502.0,11_39_14_84669
2036,502.0,11_39_14_84702
2037,502.0,11_39_14_84753
2038,502.0,11_39_14_84785
2039,502.0,11_39_14_84835
2040,502.0,11_39_14_84869
2041,502.0,11_39_14_84902
2042,502.0,11_39_14_84952
2043,502.0,11_39_14_84986
2044,502.0,11_39_14_85035
2045,502.0,11_39_14_85069
2046,503.0,11_39_14_85119
2047,502.0,11_39_14_85152
2048,502.0,11_39_14_85202
2049,503.0,11_39_14_85236
2050,503.0,11_39_14_85286
2051,502.0,11_39_14_85319
2052,502.0,11_39_14_85369
2053,502.0,11_39_14_85403
2054,502.0,11_39_15_85435
2055,502.0,11_39_15_85486
2056,502.0,11_39_15_85518
2057,502.0,11_39_15_85570
2058,502.0,11_39_15_85602
2059,502.0,11_39_15_85652
2060,502.0,11_39_15_85686
2061,502.0,11_39_15_85736
2062,502.0,11_39_15_85769
2063,502.0,11_39_15_85819
2064,502.0,11_39_15_85852
2065,503.0,11_39_15_85885
2066,502.0,11_39_15_85935
2067,503.0,11_39_15_85969
2068,502.0,11_39_15_86019
2069,502.0,11_39_15_86052
2070,502.0,11_39_15_86102
2071,502.0,11_39_15_86135
2072,502.0,11_39_15_86186
2073,502.0,11_39_15_86219
2074,502.0,11_39_15_86269
2075,502.0,11_39_15_86302
2076,501.0,11_39_15_86353
2077,502.0,11_39_15_86385
2078,502.0,11_39_16_86435
2079,502.0,11_39_16_86469
2080,502.0,11_39_16_86519
2081,502.0,11_39_16_86552
2082,502.0,11_39_16_86586
2083,502.0,11_39_16_86636
2084,502.0,11_39_16_86669
2085,502.0,11_39_16_86719
2086,503.0,11_39_16_86752
2087,502.0,11_39_16_86802
2088,502.0,11_39_16_86836
2089,502.0,11_39_16_86886
2090,502.0,11_39_16_86919
2091,502.0,11_39_16_86969
2092,502.0,11_39_16_87002
2093,502.0,11_39_16_87036
2094,502.0,11_39_16_87086
2095,502.0,11_39_16_87119
2096,502.0,11_39_16_87169
2097,502.0,11_39_16_87203
2098,502.0,11_39_16_87253
2099,502.0,11_39_16_87286
2100,502.0,11_39_16_87335
2101,502.0,11_39_16_87369
2102,502.0,11_39_17_87419
2103,502.0,11_39_17_87452
2104,503.0,11_39_17_87502
2105,503.0,11_39_17_87536
2106,502.0,11_39_17_87569
2107,503.0,11_39_17_87619
2108,502.0,11_39_17_87653
2109,502.0,11_39_17_87702
2110,502.0,11_39_17_87736
2111,502.0,11_39_17_87786
2112,502.0,11_39_17_87819
2113,502.0,11_39_17_87868
2114,502.0,11_39_17_87903
2115,502.0,11_39_17_87952
2116,502.0,11_39_17_87985
2117,502.0,11_39_17_88036
2118,502.0,11_39_17_88069
2119,502.0,11_39_17_88119
2120,503.0,11_39_17_88152
2121,502.0,11_39_17_88202
2122,502.0,11_39_17_88236
2123,503.0,11_39_17_88269
2124,503.0,11_39_17_88319
2125,503.0,11_39_17_88353
2126,503.0,11_39_17_88402
2127,503.0,11_39_18_88436
2128,502.0,11_39_18_88486
2129,502.0,11_39_18_88519
2130,502.0,11_39_18_88569
2131,502.0,11_39_18_88603
2132,502.0,11_39_18_88652
2133,502.0,11_39_18_88686
2134,502.0,11_39_18_88736
2135,501.0,11_39_18_88769
2136,502.0,11_39_18_88819
2137,502.0,11_39_18_88853
2138,502.0,11_39_18_88886
2139,502.0,11_39_18_88935
2140,502.0,11_39_18_88969
2141,502.0,11_39_18_89019
2142,503.0,11_39_18_89052
2143,502.0,11_39_18_89102
2144,502.0,11_39_18_89136
2145,502.0,11_39_18_89186
2146,502.0,11_39_18_89219
2147,502.0,11_39_18_89252
2148,502.0,11_39_18_89303
2149,502.0,11_39_18_89353
2150,501.0,11_39_18_89386
2151,502.0,11_39_19_89419
2152,502.0,11_39_19_89469
2153,501.0,11_39_19_89502
2154,502.0,11_39_19_89552
2155,501.0,11_39_19_89586
2156,502.0,11_39_19_89636
2157,502.0,11_39_19_89669
2158,502.0,11_39_19_89719
2159,502.0,11_39_19_89752
2160,502.0,11_39_19_89803
2161,502.0,11_39_19_89836
2162,502.0,11_39_19_89886
2163,503.0,11_39_19_89919
2164,502.0,11_39_19_89952
2165,503.0,11_39_19_90003
2166,502.0,11_39_19_90036
2167,503.0,11_39_19_90086
2168,502.0,11_39_19_90119
2169,502.0,11_39_19_90169
2170,502.0,11_39_19_90203
2171,502.0,11_39_19_90253
2172,502.0,11_39_19_90286
2173,501.0,11_39_19_90336
2174,502.0,11_39_19_90369
2175,502.0,11_39_20_90419
2176,502.0,11_39_20_90453
2177,502.0,11_39_20_90486
2178,503.0,11_39_20_90536
2179,502.0,11_39_20_90570
2180,502.0,11_39_20_90619
2181,502.0,11_39_20_90653
2182,502.0,11_39_20_90703
2183,502.0,11_39_20_90736
2184,503.0,11_39_20_90786
2185,503.0,11_39_20_90819
2186,502.0,11_39_20_90869
2187,502.0,11_39_20_90902
2188,502.0,11_39_20_90953
2189,502.0,11_39_20_90986
2190,502.0,11_39_20_91036
2191,501.0,11_39_20_91070
2192,502.0,11_39_20_91119
2193,502.0,11_39_20_91152
2194,502.0,11_39_20_91186
2195,502.0,11_39_20_91236
2196,502.0,11_39_20_91269
2197,502.0,11_39_20_91320
2198,502.0,11_39_20_91352
2199,502.0,11_39_20_91403
2200,502.0,11_39_21_91436
2201,503.0,11_39_21_91486
2202,502.0,11_39_21_91519
2203,502.0,11_39_21_91569
2204,502.0,11_39_21_91603
2205,502.0,11_39_21_91637
2206,502.0,11_39_21_91686
2207,502.0,11_39_21_91720
2208,501.0,11_39_21_91769
2209,502.0,11_39_21_91819
2210,502.0,11_39_21_91853
2211,502.0,11_39_21_91886
2212,502.0,11_39_21_91936
2213,501.0,11_39_21_91970
2214,502.0,11_39_21_92019
2215,502.0,11_39_21_92053
2216,502.0,11_39_21_92103
2217,502.0,11_39_21_92136
2218,502.0,11_39_21_92186
2219,502.0,11_39_21_92220
2220,502.0,11_39_21_92270
2221,502.0,11_39_21_92303
2222,503.0,11_39_21_92352
2223,486.0,11_39_21_92386
2224,475.0,11_39_22_92419
2225,468.0,11_39_22_92470
2226,461.0,11_39_22_92503
2227,454.0,11_39_22_92552
2228,447.0,11_39_22_92586
2229,440.0,11_39_22_92636
2230,434.0,11_39_22_92669
2231,428.0,11_39_22_92719
2232,424.0,11_39_22_92753
2233,421.0,11_39_22_92786
2234,423.0,11_39_22_92836
2235,426.0,11_39_22_92870
2236,431.0,11_39_22_92919
2237,434.0,11_39_22_92953
2238,438.0,11_39_22_93003
2239,442.0,11_39_22_93036
2240,445.0,11_39_22_93086
2241,448.0,11_39_22_93119
2242,451.0,11_39_22_93169
2243,454.0,11_39_22_93203
2244,455.0,11_39_22_93252
2245,454.0,11_39_22_93286
2246,451.0,11_39_22_93336
2247,446.0,11_39_22_93369
2248,440.0,11_39_23_93419
2249,435.0,11_39_23_93452
2250,430.0,11_39_23_93503
2251,424.0,11_39_23_93537
2252,421.0,11_39_23_93569
2253,378.0,11_39_23_93620
2254,352.0,11_39_23_93653
2255,343.0,11_39_23_93703
2256,337.0,11_39_23_93737
2257,330.0,11_39_23_93786
2258,323.0,11_39_23_93820
2259,326.0,11_39_23_93870
2260,334.0,11_39_23_93903
2261,345.0,11_39_23_93953
2262,351.0,11_39_23_93987
2263,351.0,11_39_23_94020
2264,346.0,11_39_23_94069
2265,340.0,11_39_23_94103
2266,332.0,11_39_23_94153
2267,316.0,11_39_23_94186
2268,302.0,11_39_23_94236
2269,290.0,11_39_23_94287
2270,284.0,11_39_23_94319
2271,276.0,11_39_23_94353
2272,272.0,11_39_23_94403
2273,268.0,11_39_24_94436
2274,269.0,11_39_24_94486
2275,274.0,11_39_24_94520
2276,280.0,11_39_24_94570
2277,284.0,11_39_24_94603
2278,285.0,11_39_24_94653
2279,284.0,11_39_24_94686
2280,283.0,11_39_24_94720
2281,282.0,11_39_24_94770
2282,279.0,11_39_24_94804
2283,276.0,11_39_24_94852
2284,272.0,11_39_24_94886
2285,268.0,11_39_24_94936
2286,264.0,11_39_24_94986
2287,260.0,11_39_24_95019
2288,259.0,11_39_24_95053
2289,258.0,11_39_24_95103
2290,260.0,11_39_24_95137
2291,261.0,11_39_24_95186
2292,264.0,11_39_24_95220
2293,268.0,11_39_24_95270
2294,272.0,11_39_24_95303
2295,276.0,11_39_24_95353
2296,279.0,11_39_24_95386
2297,281.0,11_39_25_95436
2298,281.0,11_39_25_95470
2299,281.0,11_39_25_95503
2300,280.0,11_39_25_95553
2301,277.0,11_39_25_95586
2302,274.0,11_39_25_95637
2303,270.0,11_39_25_95670
2304,267.0,11_39_25_95719
2305,266.0,11_39_25_95753
2306,264.0,11_39_25_95803
2307,265.0,11_39_25_95837
2308,266.0,11_39_25_95887
2309,268.0,11_39_25_95919
2310,271.0,11_39_25_95969
2311,275.0,11_39_25_96003
2312,280.0,11_39_25_96053
2313,283.0,11_39_25_96086
2314,285.0,11_39_25_96137
2315,286.0,11_39_25_96170
2316,285.0,11_39_25_96220
2317,283.0,11_39_25_96253
2318,281.0,11_39_25_96287
2319,278.0,11_39_25_96337
2320,275.0,11_39_25_96369
2321,271.0,11_39_26_96420
2322,268.0,11_39_26_96453
2323,267.0,11_39_26_96503
2324,267.0,11_39_26_96536
2325,267.0,11_39_26_96586
2326,269.0,11_39_26_96620
2327,273.0,11_39_26_96669
2328,276.0,11_39_26_96703
2329,281.0,11_39_26_96753
2330,285.0,11_39_26_96786
2331,287.0,11_39_26_96837
2332,288.0,11_39_26_96869
2333,288.0,11_39_26_96903
2334,286.0,11_39_26_96953
2335,284.0,11_39_26_96986
2336,281.0,11_39_26_97036
2337,278.0,11_39_26_97069
2338,274.0,11_39_26_97120
2339,271.0,11_39_26_97153
2340,269.0,11_39_26_97203
2341,269.0,11_39_26_97236
2342,269.0,11_39_26_97286
2343,271.0,11_39_26_97320
2344,272.0,11_39_26_97370
2345,276.0,11_39_26_97403
2346,281.0,11_39_27_97454
2347,285.0,11_39_27_97486
2348,287.0,11_39_27_97536
2349,289.0,11_39_27_97570
2350,288.0,11_39_27_97620
2351,288.0,11_39_27_97653
2352,286.0,11_39_27_97687
2353,283.0,11_39_27_97737
2354,280.0,11_39_27_97770
2355,276.0,11_39_27_97820
2356,273.0,11_39_27_97853
2357,270.0,11_39_27_97903
2358,269.0,11_39_27_97936
2359,269.0,11_39_27_97986
2360,270.0,11_39_27_98020
2361,272.0,11_39_27_98069
2362,276.0,11_39_27_98103
2363,280.0,11_39_27_98153
2364,284.0,11_39_27_98187
2365,288.0,11_39_27_98237
2366,289.0,11_39_27_98270
2367,289.0,11_39_27_98319
2368,289.0,11_39_27_98353
2369,287.0,11_39_27_98403
2370,284.0,11_39_28_98436
2371,280.0,11_39_28_98470
2372,277.0,11_39_28_98520
2373,274.0,11_39_28_98553
2374,271.0,11_39_28_98603
2375,270.0,11_39_28_98637
2376,270.0,11_39_28_98686
2377,270.0,11_39_28_98720
2378,272.0,11_39_28_98770
2379,275.0,11_39_28_98803
2380,279.0,11_39_28_98853
2381,284.0,11_39_28_98886
2382,287.0,11_39_28_98920
2383,289.0,11_39_28_98970
2384,290.0,11_39_28_99020
2385,290.0,11_39_28_99053
2386,289.0,11_39_28_99104
2387,287.0,11_39_28_99137
2388,284.0,11_39_28_99169
2389,281.0,11_39_28_99220
2390,277.0,11_39_28_99254
2391,274.0,11_39_28_99303
2392,271.0,11_39_28_99337
2393,270.0,11_39_28_99387
2394,270.0,11_39_29_99420
2395,272.0,11_39_29_99470
2396,273.0,11_39_29_99503
2397,277.0,11_39_29_99537
2398,281.0,11_39_29_99586
2399,285.0,11_39_29_99620
2400,288.0,11_39_29_99670
2401,291.0,11_39_29_99704
2402,292.0,11_39_29_99754
2403,292.0,11_39_29_99787
2404,290.0,11_39_29_99836
2405,288.0,11_39_29_99870
2406,286.0,11_39_29_99920
2407,283.0,11_39_29_99953
2408,279.0,11_39_29_100003
2409,276.0,11_39_29_100037
2410,273.0,11_39_29_100087
2411,272.0,11_39_29_100120
2412,272.0,11_39_29_100170
2413,273.0,11_39_29_100203
2414,276.0,11_39_29_100253
2415,279.0,11_39_29_100287
2416,283.0,11_39_29_100320
2417,287.0,11_39_29_100370
2418,290.0,11_39_29_100403
2419,293.0,11_39_30_100453
2420,294.0,11_39_30_100486
2421,293.0,11_39_30_100537
2422,292.0,11_39_30_100570
2423,290.0,11_39_30_100620
2424,288.0,11_39_30_100653
2425,285.0,11_39_30_100703
2426,281.0,11_39_30_100736
2427,278.0,11_39_30_100787
2428,275.0,11_39_30_100820
2429,274.0,11_39_30_100870
2430,273.0,11_39_30_100904
2431,275.0,11_39_30_100953
2432,277.0,11_39_30_100987
2433,279.0,11_39_30_101020
2434,283.0,11_39_30_101070
2435,287.0,11_39_30_101103
2436,291.0,11_39_30_101154
2437,294.0,11_39_30_101187
2438,295.0,11_39_30_101237
2439,295.0,11_39_30_101270
2440,294.0,11_39_30_101320
2441,293.0,11_39_30_101353
2442,291.0,11_39_30_101403
2443,288.0,11_39_31_101437
2444,284.0,11_39_31_101486
2445,281.0,11_39_31_101520
2446,278.0,11_39_31_101553
2447,276.0,11_39_31_101603
2448,275.0,11_39_31_101636
2449,276.0,11_39_31_101686
2450,277.0,11_39_31_101720
2451,280.0,11_39_31_101770
2452,284.0,11_39_31_101803
2453,288.0,11_39_31_101853
2454,292.0,11_39_31_101886
2455,295.0,11_39_31_101937
2456,296.0,11_39_31_101970
2457,297.0,11_39_31_102003
2458,297.0,11_39_31_102053
2459,295.0,11_39_31_102086
2460,294.0,11_39_31_102137
2461,291.0,11_39_31_102170
2462,288.0,11_39_31_102220
2463,284.0,11_39_31_102270
2464,282.0,11_39_31_102304
2465,279.0,11_39_31_102336
2466,278.0,11_39_31_102387
2467,277.0,11_39_32_102420
2468,278.0,11_39_32_102470
2469,280.0,11_39_32_102503
2470,282.0,11_39_32_102553
2471,286.0,11_39_32_102586
2472,291.0,11_39_32_102636
2473,295.0,11_39_32_102670
2474,298.0,11_39_32_102704
2475,299.0,11_39_32_102754
2476,300.0,11_39_32_102786
2477,299.0,11_39_32_102836
2478,298.0,11_39_32_102870
2479,295.0,11_39_32_102920
2480,291.0,11_39_32_102954
2481,288.0,11_39_32_103003
2482,284.0,11_39_32_103037
2483,281.0,11_39_32_103087
2484,280.0,11_39_32_103120
2485,279.0,11_39_32_103170
2486,281.0,11_39_32_103203
2487,283.0,11_39_32_103253
2488,285.0,11_39_32_103287
2489,290.0,11_39_32_103336
2490,294.0,11_39_32_103370
2491,297.0,11_39_33_103420
2492,299.0,11_39_33_103453
2493,301.0,11_39_33_103487
2494,302.0,11_39_33_103537
2495,301.0,11_39_33_103570
2496,299.0,11_39_33_103621
2497,295.0,11_39_33_103653
2498,291.0,11_39_33_103703
2499,288.0,11_39_33_103737
2500,284.0,11_39_33_103787
2501,282.0,11_39_33_103820
2502,282.0,11_39_33_103870
2503,281.0,11_39_33_103903
2504,283.0,11_39_33_103953
2505,285.0,11_39_33_103987
2506,288.0,11_39_33_104037
2507,293.0,11_39_33_104070
2508,297.0,11_39_33_104120
2509,300.0,11_39_33_104153
2510,301.0,11_39_33_104187
2511,302.0,11_39_33_104237
2512,301.0,11_39_33_104270
2513,299.0,11_39_33_104320
2514,297.0,11_39_33_104354
2515,293.0,11_39_33_104403
2516,289.0,11_39_34_104437
2517,286.0,11_39_34_104486
2518,283.0,11_39_34_104520
2519,281.0,11_39_34_104570
2520,281.0,11_39_34_104604
2521,282.0,11_39_34_104637
2522,284.0,11_39_34_104687
2523,287.0,11_39_34_104736
2524,291.0,11_39_34_104770
2525,295.0,11_39_34_104803
2526,299.0,11_39_34_104853
2527,301.0,11_39_34_104904
2528,303.0,11_39_34_104936
2529,303.0,11_39_34_104970
2530,301.0,11_39_34_105020
2531,299.0,11_39_34_105054
2532,295.0,11_39_34_105103
2533,292.0,11_39_34_105137
2534,288.0,11_39_34_105186
2535,285.0,11_39_34_105220
2536,283.0,11_39_34_105270
2537,282.0,11_39_34_105304
2538,282.0,11_39_34_105354
2539,284.0,11_39_34_105386
2540,287.0,11_39_35_105420
2541,291.0,11_39_35_105471
2542,295.0,11_39_35_105503
2543,299.0,11_39_35_105553
2544,302.0,11_39_35_105587
2545,305.0,11_39_35_105637
2546,305.0,11_39_35_105670
2547,303.0,11_39_35_105720
2548,302.0,11_39_35_105754
2549,299.0,11_39_35_105804
2550,295.0,11_39_35_105837
2551,291.0,11_39_35_105886
2552,287.0,11_39_35_105920
2553,284.0,11_39_35_105971
2554,282.0,11_39_35_106003
2555,282.0,11_39_35_106054
2556,282.0,11_39_35_106086
2557,284.0,11_39_35_106137
2558,287.0,11_39_35_106171
2559,291.0,11_39_35_106204
2560,295.0,11_39_35_106254
2561,298.0,11_39_35_106287
2562,300.0,11_39_35_106337
2563,301.0,11_39_35_106370
2564,302.0,11_39_36_106420
2565,300.0,11_39_36_106453
2566,298.0,11_39_36_106504
2567,295.0,11_39_36_106537
2568,291.0,11_39_36_106587
2569,288.0,11_39_36_106620
2570,284.0,11_39_36_106670
2571,281.0,11_39_36_106704
2572,280.0,11_39_36_106753
2573,280.0,11_39_36_106787
2574,282.0,11_39_36_106837
2575,291.0,11_39_36_106870
2576,316.0,11_39_36_106904
2577,344.0,11_39_36_106954
2578,381.0,11_39_36_106986
2579,407.0,11_39_36_107037
2580,424.0,11_39_36_107071
2581,434.0,11_39_36_107120
2582,440.0,11_39_36_107153
2583,441.0,11_39_36_107203
2584,439.0,11_39_36_107237
2585,435.0,11_39_36_107287
2586,450.0,11_39_36_107321
2587,468.0,11_39_36_107353
2588,480.0,11_39_36_107404
2589,488.0,11_39_37_107437
2590,492.0,11_39_37_107487
2591,496.0,11_39_37_107520
2592,498.0,11_39_37_107570
2593,499.0,11_39_37_107603
2594,501.0,11_39_37_107654
2595,501.0,11_39_37_107687
2596,502.0,11_39_37_107737
2597,502.0,11_39_37_107770
2598,502.0,11_39_37_107820
2599,502.0,11_39_37_107853
2600,503.0,11_39_37_107887
2601,502.0,11_39_37_107936
2602,502.0,11_39_37_107987
2603,502.0,11_39_37_108020
2604,502.0,11_39_37_108070
2605,502.0,11_39_37_108104
2606,501.0,11_39_37_108137
2607,502.0,11_39_37_108187
2608,502.0,11_39_37_108220
2609,502.0,11_39_37_108270
2610,502.0,11_39_37_108304
2611,502.0,11_39_37_108353
2612,502.0,11_39_37_108387
2613,502.0,11_39_38_108437
2614,502.0,11_39_38_108470
2615,503.0,11_39_38_108520
2616,502.0,11_39_38_108554
2617,503.0,11_39_38_108587
2618,503.0,11_39_38_108637
2619,502.0,11_39_38_108670
2620,503.0,11_39_38_108720
2621,502.0,11_39_38_108753
2622,502.0,11_39_38_108804
2623,502.0,11_39_38_108837
2624,502.0,11_39_38_108887
2625,502.0,11_39_38_108920
2626,502.0,11_39_38_108970
2627,502.0,11_39_38_109003
2628,502.0,11_39_38_109053
2629,502.0,11_39_38_109087
2630,502.0,11_39_38_109121
2631,502.0,11_39_38_109170
2632,502.0,11_39_38_109204
2633,502.0,11_39_38_109253
2634,503.0,11_39_38_109288
2635,502.0,11_39_38_109337
2636,502.0,11_39_38_109370
2637,503.0,11_39_39_109420
2638,503.0,11_39_39_109454
2639,502.0,11_39_39_109504
2640,502.0,11_39_39_109537
2641,502.0,11_39_39_109587
2642,502.0,11_39_39_109620
2643,502.0,11_39_39_109670
2644,502.0,11_39_39_109704
2645,502.0,11_39_39_109754
2646,502.0,11_39_39_109787
2647,502.0,11_39_39_109821
2648,503.0,11_39_39_109870
2649,502.0,11_39_39_109904
2650,502.0,11_39_39_109953
2651,502.0,11_39_39_109987
2652,502.0,11_39_39_110037
2653,502.0,11_39_39_110071
2654,502.0,11_39_39_110120
2655,503.0,11_39_39_110153
2656,503.0,11_39_39_110204
2657,502.0,11_39_39_110237
2658,503.0,11_39_39_110270
2659,503.0,11_39_39_110321
2660,502.0,11_39_39_110354
2661,502.0,11_39_39_110403
2662,502.0,11_39_40_110453
2663,502.0,11_39_40_110487
2664,502.0,11_39_40_110520
2665,502.0,11_39_40_110570
2666,502.0,11_39_40_110603
2667,502.0,11_39_40_110653
2668,502.0,11_39_40_110687
2669,502.0,11_39_40_110737
2670,502.0,11_39_40_110771
2671,503.0,11_39_40_110821
2672,502.0,11_39_40_110854
2673,503.0,11_39_40_110904
2674,503.0,11_39_40_110937
2675,503.0,11_39_40_110970
2676,502.0,11_39_40_111020
2677,502.0,11_39_40_111054
2678,502.0,11_39_40_111104
2679,502.0,11_39_40_111137
2680,502.0,11_39_40_111187
2681,502.0,11_39_40_111221
2682,502.0,11_39_40_111270
2683,502.0,11_39_40_111303
2684,502.0,11_39_40_111354
2685,502.0,11_39_40_111388
2686,502.0,11_39_41_111437
2687,503.0,11_39_41_111470
2688,502.0,11_39_41_111504
2689,503.0,11_39_41_111554
2690,502.0,11_39_41_111587
2691,503.0,11_39_41_111637
2692,503.0,11_39_41_111671
2693,502.0,11_39_41_111720
2694,502.0,11_39_41_111754
2695,502.0,11_39_41_111804
2696,503.0,11_39_41_111837
2697,502.0,11_39_41_111887
2698,502.0,11_39_41_111920
2699,501.0,11_39_41_111970
2700,501.0,11_39_41_112004
2701,501.0,11_39_41_112054
2702,501.0,11_39_41_112090
2703,502.0,11_39_41_112137
2704,501.0,11_39_41_112170
2705,502.0,11_39_41_112204
2706,501.0,11_39_41_112254
2707,502.0,11_39_41_112287
2708,502.0,11_39_41_112337
2709,501.0,11_39_41_112370
2710,501.0,11_39_42_112421
2711,500.0,11_39_42_112453
2712,499.0,11_39_42_112503
2713,499.0,11_39_42_112537
2714,495.0,11_39_42_112588
2715,481.0,11_39_42_112621
2716,474.0,11_39_42_112654
2717,479.0,11_39_42_112703
2718,482.0,11_39_42_112737
2719,489.0,11_39_42_112788
2720,492.0,11_39_42_112820
2721,464.0,11_39_42_112871
2722,451.0,11_39_42_112904
2723,445.0,11_39_42_112954
2724,443.0,11_39_42_112987
2725,442.0,11_39_42_113037
2726,443.0,11_39_42_113070
2727,445.0,11_39_42_113120
2728,447.0,11_39_42_113154
2729,450.0,11_39_42_113187
2730,451.0,11_39_42_113237
2731,453.0,11_39_42_113271
2732,453.0,11_39_42_113321
2733,451.0,11_39_42_113354
2734,447.0,11_39_42_113404
2735,442.0,11_39_43_113437
2736,436.0,11_39_43_113487
2737,429.0,11_39_43_113521
2738,422.0,11_39_43_113571
2739,419.0,11_39_43_113604
2740,419.0,11_39_43_113654
2741,423.0,11_39_43_113687
2742,430.0,11_39_43_113737
2743,446.0,11_39_43_113771
2744,466.0,11_39_43_113820
2745,480.0,11_39_43_113854
2746,478.0,11_39_43_113887
2747,475.0,11_39_43_113937
2748,469.0,11_39_43_113971
2749,462.0,11_39_43_114020
2750,457.0,11_39_43_114054
2751,455.0,11_39_43_114104
2752,449.0,11_39_43_114137
2753,455.0,11_39_43_114188
2754,457.0,11_39_43_114220
2755,453.0,11_39_43_114271
2756,439.0,11_39_43_114304
2757,429.0,11_39_43_114354
2758,423.0,11_39_43_114387
2759,422.0,11_39_44_114420
2760,424.0,11_39_44_114470
2761,423.0,11_39_44_114504
2762,424.0,11_39_44_114554
2763,429.0,11_39_44_114587
2764,433.0,11_39_44_114637
2765,437.0,11_39_44_114671
2766,442.0,11_39_44_114721
2767,449.0,11_39_44_114754
2768,453.0,11_39_44_114804
2769,454.0,11_39_44_114838
2770,451.0,11_39_44_114887
2771,446.0,11_39_44_114920
2772,441.0,11_39_44_114970
2773,435.0,11_39_44_115004
2774,429.0,11_39_44_115054
2775,418.0,11_39_44_115087
2776,405.0,11_39_44_115121
2777,392.0,11_39_44_115171
2778,387.0,11_39_44_115204
2779,392.0,11_39_44_115254
2780,410.0,11_39_44_115287
2781,422.0,11_39_44_115338
2782,431.0,11_39_44_115370
2783,439.0,11_39_45_115420
2784,444.0,11_39_45_115453
2785,450.0,11_39_45_115504
2786,454.0,11_39_45_115537
2787,455.0,11_39_45_115571
2788,446.0,11_39_45_115621
2789,434.0,11_39_45_115654
2790,420.0,11_39_45_115704
2791,405.0,11_39_45_115738
2792,388.0,11_39_45_115787
2793,373.0,11_39_45_115821
2794,358.0,11_39_45_115870
2795,344.0,11_39_45_115904
2796,335.0,11_39_45_115954
2797,329.0,11_39_45_115987
2798,326.0,11_39_45_116037
2799,325.0,11_39_45_116071
2800,325.0,11_39_45_116121
2801,328.0,11_39_45_116154
2802,332.0,11_39_45_116204
2803,336.0,11_39_45_116237
2804,338.0,11_39_45_116287
2805,341.0,11_39_45_116321
2806,348.0,11_39_45_116354
2807,358.0,11_39_45_116404
2808,364.0,11_39_46_116437
2809,369.0,11_39_46_116487
2810,374.0,11_39_46_116521
2811,384.0,11_39_46_116571
2812,390.0,11_39_46_116604
2813,398.0,11_39_46_116654
2814,406.0,11_39_46_116688
2815,414.0,11_39_46_116737
2816,422.0,11_39_46_116771
2817,428.0,11_39_46_116804
2818,434.0,11_39_46_116854
2819,438.0,11_39_46_116888
2820,443.0,11_39_46_116938
2821,447.0,11_39_46_116971
2822,451.0,11_39_46_117021
2823,454.0,11_39_46_117054
2824,457.0,11_39_46_117104
2825,455.0,11_39_46_117138
2826,454.0,11_39_46_117188
2827,450.0,11_39_46_117221
2828,446.0,11_39_46_117271
2829,440.0,11_39_46_117304
2830,459.0,11_39_46_117354
2831,474.0,11_39_46_117388
2832,484.0,11_39_47_117437
2833,490.0,11_39_47_117470
2834,494.0,11_39_47_117521
2835,497.0,11_39_47_117554
2836,477.0,11_39_47_117587
2837,464.0,11_39_47_117637
2838,456.0,11_39_47_117670
2839,453.0,11_39_47_117721
2840,453.0,11_39_47_117754
2841,454.0,11_39_47_117804
2842,453.0,11_39_47_117837
2843,451.0,11_39_47_117887
2844,458.0,11_39_47_117920
2845,461.0,11_39_47_117971
2846,462.0,11_39_47_118004
2847,454.0,11_39_47_118037
2848,446.0,11_39_47_118087
2849,440.0,11_39_47_118121
2850,432.0,11_39_47_118171
2851,427.0,11_39_47_118204
2852,425.0,11_39_47_118255
2853,424.0,11_39_47_118287
2854,427.0,11_39_47_118337
2855,430.0,11_39_47_118371
2856,433.0,11_39_48_118420
2857,437.0,11_39_48_118454
2858,440.0,11_39_48_118487
2859,444.0,11_39_48_118538
2860,448.0,11_39_48_118570
2861,452.0,11_39_48_118621
2862,454.0,11_39_48_118654
2863,453.0,11_39_48_118704
2864,388.0,11_39_48_118737
2865,343.0,11_39_48_118787
2866,300.0,11_39_48_118821
2867,265.0,11_39_48_118871
2868,239.0,11_39_48_118904
2869,219.0,11_39_48_118955
2870,206.0,11_39_48_118987
2871,197.0,11_39_48_119038
2872,193.0,11_39_48_119070
2873,192.0,11_39_48_119121
2874,187.0,11_39_48_119154
2875,183.0,11_39_48_119204
2876,181.0,11_39_48_119237
2877,183.0,11_39_48_119271
2878,187.0,11_39_48_119321
2879,191.0,11_39_48_119354
2880,193.0,11_39_48_119404
2881,194.0,11_39_49_119438
2882,195.0,11_39_49_119488
2883,197.0,11_39_49_119520
2884,197.0,11_39_49_119571
2885,195.0,11_39_49_119604
2886,193.0,11_39_49_119654
2887,192.0,11_39_49_119688
2888,192.0,11_39_49_119738
2889,192.0,11_39_49_119771
2890,193.0,11_39_49_119821
2891,194.0,11_39_49_119854
2892,195.0,11_39_49_119904
2893,198.0,11_39_49_119937
2894,199.0,11_39_49_119971
2895,202.0,11_39_49_120021
2896,202.0,11_39_49_120054
2897,203.0,11_39_49_120104
2898,203.0,11_39_49_120137
2899,203.0,11_39_49_120187
2900,203.0,11_39_49_120220
2901,202.0,11_39_49_120271
2902,201.0,11_39_49_120304
2903,200.0,11_39_49_120354
2904,199.0,11_39_49_120388
2905,197.0,11_39_50_120437
2906,197.0,11_39_50_120471
2907,197.0,11_39_50_120521
2908,198.0,11_39_50_120554
2909,200.0,11_39_50_120604
2910,201.0,11_39_50_120638
2911,203.0,11_39_50_120671
2912,206.0,11_39_50_120721
2913,207.0,11_39_50_120754
2914,205.0,11_39_50_120804
2915,204.0,11_39_50_120838
2916,202.0,11_39_50_120888
2917,198.0,11_39_50_120921
2918,195.0,11_39_50_120971
2919,193.0,11_39_50_121004
2920,189.0,11_39_50_121055
2921,185.0,11_39_50_121087
2922,182.0,11_39_50_121137
2923,180.0,11_39_50_121171
2924,179.0,11_39_50_121221
2925,178.0,11_39_50_121254
2926,179.0,11_39_50_121304
2927,180.0,11_39_50_121337
2928,182.0,11_39_50_121371
2929,184.0,11_39_51_121421
2930,186.0,11_39_51_121454
2931,189.0,11_39_51_121504
2932,190.0,11_39_51_121538
2933,191.0,11_39_51_121587
2934,191.0,11_39_51_121621
2935,190.0,11_39_51_121671
2936,188.0,11_39_51_121704
2937,187.0,11_39_51_121755
2938,185.0,11_39_51_121787
2939,182.0,11_39_51_121838
2940,180.0,11_39_51_121871
2941,179.0,11_39_51_121921
2942,178.0,11_39_51_121954
2943,178.0,11_39_51_122005
2944,179.0,11_39_51_122038
2945,180.0,11_39_51_122088
2946,183.0,11_39_51_122120
2947,186.0,11_39_51_122154
2948,189.0,11_39_51_122205
2949,191.0,11_39_51_122238
2950,193.0,11_39_51_122288
2951,194.0,11_39_51_122321
2952,194.0,11_39_51_122371
2953,194.0,11_39_51_122404
2954,193.0,11_39_52_122455
2955,191.0,11_39_52_122487
2956,190.0,11_39_52_122538
2957,187.0,11_39_52_122571
2958,185.0,11_39_52_122621
2959,183.0,11_39_52_122654
2960,182.0,11_39_52_122704
2961,182.0,11_39_52_122738
2962,183.0,11_39_52_122788
2963,185.0,11_39_52_122821
2964,188.0,11_39_52_122854
2965,190.0,11_39_52_122905
2966,193.0,11_39_52_122938
2967,195.0,11_39_52_122988
2968,196.0,11_39_52_123021
2969,197.0,11_39_52_123071
2970,196.0,11_39_52_123104
2971,195.0,11_39_52_123154
2972,194.0,11_39_52_123188
2973,192.0,11_39_52_123238
2974,190.0,11_39_52_123271
2975,188.0,11_39_52_123321
2976,186.0,11_39_52_123354
2977,185.0,11_39_52_123404
2978,185.0,11_39_53_123438
2979,185.0,11_39_53_123488
2980,187.0,11_39_53_123521
2981,189.0,11_39_53_123555
2982,191.0,11_39_53_123604
2983,194.0,11_39_53_123638
2984,197.0,11_39_53_123688
2985,198.0,11_39_53_123721
2986,199.0,11_39_53_123771
2987,200.0,11_39_53_123804
2988,199.0,11_39_53_123855
2989,198.0,11_39_53_123887
2990,196.0,11_39_53_123937
2991,194.0,11_39_53_123971
2992,193.0,11_39_53_124021
2993,190.0,11_39_53_124054
2994,188.0,11_39_53_124104
2995,188.0,11_39_53_124138
2996,187.0,11_39_53_124187
2997,188.0,11_39_53_124221
2998,190.0,11_39_53_124254
2999,192.0,11_39_53_124305
3000,195.0,11_39_53_124338
3001,198.0,11_39_53_124388
3002,200.0,11_39_54_124421
3003,202.0,11_39_54_124471
3004,203.0,11_39_54_124505
3005,203.0,11_39_54_124554
3006,202.0,11_39_54_124587
3007,201.0,11_39_54_124637
3008,200.0,11_39_54_124671
3009,197.0,11_39_54_124721
3010,195.0,11_39_54_124755
3011,193.0,11_39_54_124804
3012,191.0,11_39_54_124838
3013,190.0,11_39_54_124888
3014,190.0,11_39_54_124921
3015,191.0,11_39_54_124954
3016,192.0,11_39_54_125004
3017,194.0,11_39_54_125038
3018,197.0,11_39_54_125088
3019,201.0,11_39_54_125121
3020,203.0,11_39_54_125171
3021,205.0,11_39_54_125204
3022,206.0,11_39_54_125254
3023,206.0,11_39_54_125288
3024,205.0,11_39_54_125338
3025,204.0,11_39_54_125371
3026,202.0,11_39_55_125421
3027,199.0,11_39_55_125455
3028,197.0,11_39_55_125505
3029,195.0,11_39_55_125538
3030,193.0,11_39_55_125587
3031,192.0,11_39_55_125621
3032,193.0,11_39_55_125671
3033,193.0,11_39_55_125704
3034,195.0,11_39_55_125738
3035,197.0,11_39_55_125788
3036,199.0,11_39_55_125821
3037,203.0,11_39_55_125871
3038,206.0,11_39_55_125904
3039,208.0,11_39_55_125955
3040,209.0,11_39_55_125988
3041,209.0,11_39_55_126038
3042,208.0,11_39_55_126072
3043,207.0,11_39_55_126121
3044,205.0,11_39_55_126154
3045,203.0,11_39_55_126187
3046,201.0,11_39_55_126238
3047,199.0,11_39_55_126288
3048,197.0,11_39_55_126321
3049,196.0,11_39_55_126371
3050,196.0,11_39_55_126404
3051,197.0,11_39_56_126438
3052,199.0,11_39_56_126488
3053,200.0,11_39_56_126521
3054,203.0,11_39_56_126572
3055,206.0,11_39_56_126605
3056,210.0,11_39_56_126655
3057,211.0,11_39_56_126688
3058,212.0,11_39_56_126738
3059,212.0,11_39_56_126771
3060,211.0,11_39_56_126821
3061,211.0,11_39_56_126855
3062,208.0,11_39_56_126904
3063,206.0,11_39_56_126938
3064,204.0,11_39_56_126988
3065,202.0,11_39_56_127021
3066,201.0,11_39_56_127071
3067,200.0,11_39_56_127105
3068,200.0,11_39_56_127154
3069,201.0,11_39_56_127188
3070,202.0,11_39_56_127221
3071,204.0,11_39_56_127271
3072,207.0,11_39_56_127304
3073,209.0,11_39_56_127355
3074,212.0,11_39_56_127388
3075,214.0,11_39_57_127438
3076,215.0,11_39_57_127472
3077,215.0,11_39_57_127521
3078,214.0,11_39_57_127555
3079,212.0,11_39_57_127605
3080,211.0,11_39_57_127638
3081,208.0,11_39_57_127671
3082,206.0,11_39_57_127721
3083,203.0,11_39_57_127771
3084,202.0,11_39_57_127805
3085,201.0,11_39_57_127855
3086,201.0,11_39_57_127888
3087,201.0,11_39_57_127921
3088,203.0,11_39_57_127971
3089,205.0,11_39_57_128004
3090,207.0,11_39_57_128054
3091,210.0,11_39_57_128088
3092,213.0,11_39_57_128138
3093,215.0,11_39_57_128171
3094,216.0,11_39_57_128222
3095,215.0,11_39_57_128254
3096,214.0,11_39_57_128304
3097,213.0,11_39_57_128338
3098,211.0,11_39_57_128387
3099,209.0,11_39_58_128422
3100,206.0,11_39_58_128472
3101,204.0,11_39_58_128505
3102,202.0,11_39_58_128554
3103,201.0,11_39_58_128588
3104,201.0,11_39_58_128621
3105,202.0,11_39_58_128671
3106,203.0,11_39_58_128704
3107,205.0,11_39_58_128755
3108,208.0,11_39_58_128788
3109,211.0,11_39_58_128838
3110,214.0,11_39_58_128872
3111,216.0,11_39_58_128921
3112,217.0,11_39_58_128955
3113,217.0,11_39_58_129004
3114,216.0,11_39_58_129038
3115,216.0,11_39_58_129088
3116,214.0,11_39_58_129122
3117,212.0,11_39_58_129155
3118,210.0,11_39_58_129205
3119,207.0,11_39_58_129255
3120,205.0,11_39_58_129288
3121,205.0,11_39_58_129338
3122,204.0,11_39_58_129371
3123,205.0,11_39_58_129405
3124,206.0,11_39_59_129454
3125,207.0,11_39_59_129489
3126,210.0,11_39_59_129538
3127,213.0,11_39_59_129572
3128,216.0,11_39_59_129621
3129,219.0,11_39_59_129655
3130,220.0,11_39_59_129705
3131,220.0,11_39_59_129738
3132,220.0,11_39_59_129788
3133,219.0,11_39_59_129822
3134,217.0,11_39_59_129855
3135,216.0,11_39_59_129905
3136,213.0,11_39_59_129938
3137,211.0,11_39_59_129988
3138,209.0,11_39_59_130038
3139,208.0,11_39_59_130072
3140,207.0,11_39_59_130105
3141,208.0,11_39_59_130155
3142,208.0,11_39_59_130188
3143,210.0,11_39_59_130238
3144,212.0,11_39_59_130271
3145,216.0,11_39_59_130321
3146,219.0,11_39_59_130355
3147,221.0,11_39_59_130405
3148,223.0,11_40_0_130438
3149,223.0,11_40_0_130488
3150,223.0,11_40_0_130522
3151,223.0,11_40_0_130572
3152,222.0,11_40_0_130605
3153,219.0,11_40_0_130638
3154,217.0,11_40_0_130688
3155,215.0,11_40_0_130722
3156,212.0,11_40_0_130771
3157,211.0,11_40_0_130804
3158,210.0,11_40_0_130854
3159,211.0,11_40_0_130888
3160,211.0,11_40_0_130938
3161,213.0,11_40_0_130972
3162,215.0,11_40_0_131021
3163,217.0,11_40_0_131055
3164,221.0,11_40_0_131105
3165,223.0,11_40_0_131138
3166,225.0,11_40_0_131188
3167,226.0,11_40_0_131222
3168,226.0,11_40_0_131272
3169,226.0,11_40_0_131304
3170,225.0,11_40_0_131338
3171,224.0,11_40_0_131388
3172,221.0,11_40_1_131421
3173,219.0,11_40_1_131471
3174,216.0,11_40_1_131505
3175,215.0,11_40_1_131555
3176,214.0,11_40_1_131589
3177,214.0,11_40_1_131639
3178,214.0,11_40_1_131672
3179,216.0,11_40_1_131721
3180,218.0,11_40_1_131755
3181,220.0,11_40_1_131805
3182,224.0,11_40_1_131838
3183,226.0,11_40_1_131888
3184,228.0,11_40_1_131922
3185,230.0,11_40_1_131955
3186,231.0,11_40_1_132005
3187,229.0,11_40_1_132038
3188,229.0,11_40_1_132088
3189,228.0,11_40_1_132122
3190,226.0,11_40_1_132171
3191,223.0,11_40_1_132205
3192,221.0,11_40_1_132255
3193,218.0,11_40_1_132288
3194,217.0,11_40_1_132338
3195,217.0,11_40_1_132371
3196,217.0,11_40_2_132422
3197,219.0,11_40_2_132455
3198,220.0,11_40_2_132505
3199,222.0,11_40_2_132538
3200,225.0,11_40_2_132588
3201,228.0,11_40_2_132621
3202,231.0,11_40_2_132672
3203,232.0,11_40_2_132705
3204,233.0,11_40_2_132738
3205,233.0,11_40_2_132788
3206,232.0,11_40_2_132822
3207,231.0,11_40_2_132872
3208,230.0,11_40_2_132905
3209,227.0,11_40_2_132955
3210,224.0,11_40_2_132988
3211,222.0,11_40_2_133039
3212,220.0,11_40_2_133072
3213,219.0,11_40_2_133121
3214,220.0,11_40_2_133155
3215,220.0,11_40_2_133205
3216,221.0,11_40_2_133238
3217,223.0,11_40_2_133288
3218,226.0,11_40_2_133321
3219,229.0,11_40_2_133371
3220,232.0,11_40_2_133405
3221,235.0,11_40_3_133455
3222,236.0,11_40_3_133489
3223,236.0,11_40_3_133522
3224,235.0,11_40_3_133572
3225,235.0,11_40_3_133605
3226,233.0,11_40_3_133655
3227,230.0,11_40_3_133689
3228,228.0,11_40_3_133738
3229,226.0,11_40_3_133772
3230,224.0,11_40_3_133821
3231,223.0,11_40_3_133855
3232,222.0,11_40_3_133905
3233,223.0,11_40_3_133939
3234,224.0,11_40_3_133988
3235,225.0,11_40_3_134021
3236,227.0,11_40_3_134072
3237,231.0,11_40_3_134105
3238,234.0,11_40_3_134138
3239,237.0,11_40_3_134188
3240,237.0,11_40_3_134222
3241,238.0,11_40_3_134271
3242,238.0,11_40_3_134305
3243,238.0,11_40_3_134355
3244,237.0,11_40_3_134388
3245,234.0,11_40_4_134439
3246,232.0,11_40_4_134472
3247,229.0,11_40_4_134521
3248,227.0,11_40_4_134555
3249,225.0,11_40_4_134605
3250,225.0,11_40_4_134639
3251,225.0,11_40_4_134688
3252,226.0,11_40_4_134721
3253,227.0,11_40_4_134771
3254,229.0,11_40_4_134805
3255,232.0,11_40_4_134855
3256,235.0,11_40_4_134888
3257,238.0,11_40_4_134922
3258,240.0,11_40_4_134972
3259,241.0,11_40_4_135005
3260,241.0,11_40_4_135055
3261,241.0,11_40_4_135088
3262,240.0,11_40_4_135138
3263,238.0,11_40_4_135172
3264,236.0,11_40_4_135221
3265,232.0,11_40_4_135255
3266,230.0,11_40_4_135305
3267,228.0,11_40_4_135338
3268,227.0,11_40_4_135388
3269,227.0,11_40_5_135422
3270,228.0,11_40_5_135471
3271,229.0,11_40_5_135505
3272,230.0,11_40_5_135555
3273,234.0,11_40_5_135588
3274,237.0,11_40_5_135638
3275,239.0,11_40_5_135671
3276,242.0,11_40_5_135705
3277,244.0,11_40_5_135755
3278,244.0,11_40_5_135788
3279,243.0,11_40_5_135839
3280,242.0,11_40_5_135872
3281,241.0,11_40_5_135922
3282,239.0,11_40_5_135955
3283,236.0,11_40_5_136005
3284,233.0,11_40_5_136039
3285,231.0,11_40_5_136089
3286,229.0,11_40_5_136122
3287,229.0,11_40_5_136172
3288,230.0,11_40_5_136205
3289,231.0,11_40_5_136255
3290,232.0,11_40_5_136288
3291,235.0,11_40_5_136338
3292,239.0,11_40_5_136372
3293,242.0,11_40_5_136405
3294,244.0,11_40_6_136455
3295,245.0,11_40_6_136489
3296,246.0,11_40_6_136538
3297,246.0,11_40_6_136572
3298,245.0,11_40_6_136621
3299,243.0,11_40_6_136655
3300,241.0,11_40_6_136705
3301,238.0,11_40_6_136738
3302,236.0,11_40_6_136789
3303,233.0,11_40_6_136822
3304,232.0,11_40_6_136871
3305,230.0,11_40_6_136905
3306,231.0,11_40_6_136955
3307,231.0,11_40_6_136988
3308,233.0,11_40_6_137039
3309,235.0,11_40_6_137072
3310,238.0,11_40_6_137105
3311,241.0,11_40_6_137155
3312,242.0,11_40_6_137188
3313,243.0,11_40_6_137239
3314,245.0,11_40_6_137272
3315,244.0,11_40_6_137322
3316,243.0,11_40_6_137355
3317,241.0,11_40_6_137405
3318,239.0,11_40_7_137438
3319,236.0,11_40_7_137489
3320,233.0,11_40_7_137522
3321,230.0,11_40_7_137572
3322,227.0,11_40_7_137605
3323,226.0,11_40_7_137655
3324,225.0,11_40_7_137689
3325,226.0,11_40_7_137738
3326,226.0,11_40_7_137771
3327,228.0,11_40_7_137805
3328,230.0,11_40_7_137855
3329,233.0,11_40_7_137889
3330,236.0,11_40_7_137939
3331,237.0,11_40_7_137972
3332,238.0,11_40_7_138022
3333,237.0,11_40_7_138055
3334,237.0,11_40_7_138105
3335,235.0,11_40_7_138139
3336,234.0,11_40_7_138188
3337,230.0,11_40_7_138222
3338,228.0,11_40_7_138255
3339,225.0,11_40_7_138305
3340,223.0,11_40_7_138356
3341,221.0,11_40_7_138388
3342,221.0,11_40_8_138438
3343,222.0,11_40_8_138472
3344,222.0,11_40_8_138505
3345,223.0,11_40_8_138555
3346,226.0,11_40_8_138589
3347,230.0,11_40_8_138639
3348,232.0,11_40_8_138671
3349,235.0,11_40_8_138722
3350,236.0,11_40_8_138755
3351,236.0,11_40_8_138805
3352,236.0,11_40_8_138839
3353,235.0,11_40_8_138889
3354,234.0,11_40_8_138922
3355,232.0,11_40_8_138972
3356,229.0,11_40_8_139005
3357,226.0,11_40_8_139055
3358,224.0,11_40_8_139089
3359,223.0,11_40_8_139138
3360,222.0,11_40_8_139172
3361,223.0,11_40_8_139222
3362,224.0,11_40_8_139256
3363,226.0,11_40_8_139289
3364,227.0,11_40_8_139338
3365,231.0,11_40_8_139372
3366,233.0,11_40_9_139422
3367,237.0,11_40_9_139455
3368,238.0,11_40_9_139505
3369,239.0,11_40_9_139539
3370,239.0,11_40_9_139588
3371,238.0,11_40_9_139622
3372,238.0,11_40_9_139672
3373,236.0,11_40_9_139705
3374,233.0,11_40_9_139739
3375,230.0,11_40_9_139788
3376,227.0,11_40_9_139839
3377,226.0,11_40_9_139872
3378,225.0,11_40_9_139922
3379,226.0,11_40_9_139955
3380,228.0,11_40_9_140006
3381,229.0,11_40_9_140038
3382,231.0,11_40_9_140072
3383,234.0,11_40_9_140122
3384,238.0,11_40_9_140155
3385,240.0,11_40_9_140205
3386,242.0,11_40_9_140238
3387,242.0,11_40_9_140289
3388,243.0,11_40_9_140322
3389,242.0,11_40_9_140372
3390,241.0,11_40_9_140405
3391,239.0,11_40_10_140439
3392,236.0,11_40_10_140489
3393,233.0,11_40_10_140522
3394,230.0,11_40_10_140572
3395,228.0,11_40_10_140622
3396,227.0,11_40_10_140655
3397,227.0,11_40_10_140689
3398,227.0,11_40_10_140739
3399,228.0,11_40_10_140771
3400,230.0,11_40_10_140822
3401,232.0,11_40_10_140856
3402,234.0,11_40_10_140905
3403,237.0,11_40_10_140939
3404,239.0,11_40_10_140989
3405,241.0,11_40_10_141022
3406,241.0,11_40_10_141072
3407,240.0,11_40_10_141106
3408,239.0,11_40_10_141155
3409,237.0,11_40_10_141188
3410,234.0,11_40_10_141222
3411,231.0,11_40_10_141272
3412,229.0,11_40_10_141322
3413,227.0,11_40_10_141356
3414,226.0,11_40_10_141406
3415,226.0,11_40_11_141439
3416,227.0,11_40_11_141472
3417,230.0,11_40_11_141522
3418,237.0,11_40_11_141556
3419,251.0,11_40_11_141605
3420,278.0,11_40_11_141639
3421,300.0,11_40_11_141689
3422,319.0,11_40_11_141722
3423,359.0,11_40_11_141772
3424,384.0,11_40_11_141805
3425,425.0,11_40_11_141856
3426,452.0,11_40_11_141889
3427,469.0,11_40_11_141922
3428,480.0,11_40_11_141972
3429,483.0,11_40_11_142005
3430,475.0,11_40_11_142055
3431,465.0,11_40_11_142088
3432,459.0,11_40_11_142139
3433,456.0,11_40_11_142172
3434,457.0,11_40_11_142222
3435,454.0,11_40_11_142255
3436,446.0,11_40_11_142305
3437,446.0,11_40_11_142339
3438,450.0,11_40_11_142372
3439,464.0,11_40_12_142422
3440,471.0,11_40_12_142455
3441,482.0,11_40_12_142505
3442,489.0,11_40_12_142538
3443,494.0,11_40_12_142589
3444,497.0,11_40_12_142622
3445,499.0,11_40_12_142672
3446,500.0,11_40_12_142706
3447,500.0,11_40_12_142755
3448,501.0,11_40_12_142789
3449,501.0,11_40_12_142838
3450,501.0,11_40_12_142872
3451,501.0,11_40_12_142922
3452,502.0,11_40_12_142955
3453,502.0,11_40_12_143005
3454,502.0,11_40_12_143039
3455,502.0,11_40_12_143072
3456,502.0,11_40_12_143122
3457,502.0,11_40_12_143156
3458,501.0,11_40_12_143205
3459,492.0,11_40_12_143238
3460,487.0,11_40_12_143289
3461,485.0,11_40_12_143322
3462,481.0,11_40_12_143372
3463,479.0,11_40_12_143405
3464,477.0,11_40_13_143455
3465,472.0,11_40_13_143489
3466,464.0,11_40_13_143539
3467,453.0,11_40_13_143572
3468,443.0,11_40_13_143622
3469,435.0,11_40_13_143655
3470,427.0,11_40_13_143689
3471,421.0,11_40_13_143739
3472,418.0,11_40_13_143772
3473,419.0,11_40_13_143822
3474,422.0,11_40_13_143856
3475,426.0,11_40_13_143905
3476,429.0,11_40_13_143939
3477,433.0,11_40_13_143989
3478,437.0,11_40_13_144022
3479,440.0,11_40_13_144056
3480,444.0,11_40_13_144105
3481,447.0,11_40_13_144139
3482,450.0,11_40_13_144188
3483,452.0,11_40_13_144239
3484,450.0,11_40_13_144272
3485,447.0,11_40_13_144305
3486,442.0,11_40_13_144355
3487,436.0,11_40_13_144388
3488,431.0,11_40_14_144439
3489,426.0,11_40_14_144472
3490,421.0,11_40_14_144522
3491,418.0,11_40_14_144555
3492,418.0,11_40_14_144605
3493,422.0,11_40_14_144639
3494,426.0,11_40_14_144689
3495,430.0,11_40_14_144722
3496,435.0,11_40_14_144772
3497,438.0,11_40_14_144805
3498,443.0,11_40_14_144839
3499,446.0,11_40_14_144889
3500,449.0,11_40_14_144922
3501,453.0,11_40_14_144972
3502,454.0,11_40_14_145005
3503,452.0,11_40_14_145055
3504,449.0,11_40_14_145089
3505,446.0,11_40_14_145138
3506,440.0,11_40_14_145172
3507,436.0,11_40_14_145222
3508,431.0,11_40_14_145256
3509,427.0,11_40_14_145306
3510,427.0,11_40_14_145339
3511,429.0,11_40_14_145388
3512,433.0,11_40_15_145422
3513,432.0,11_40_15_145472
3514,415.0,11_40_15_145505
3515,393.0,11_40_15_145556
3516,392.0,11_40_15_145589
3517,390.0,11_40_15_145622
3518,375.0,11_40_15_145672
3519,352.0,11_40_15_145705
3520,325.0,11_40_15_145756
3521,295.0,11_40_15_145789
3522,258.0,11_40_15_145839
3523,230.0,11_40_15_145872
3524,211.0,11_40_15_145922
3525,194.0,11_40_15_145956
3526,178.0,11_40_15_146006
3527,165.0,11_40_15_146039
3528,156.0,11_40_15_146072
3529,154.0,11_40_15_146122
3530,151.0,11_40_15_146156
3531,150.0,11_40_15_146205
3532,152.0,11_40_15_146256
3533,157.0,11_40_15_146289
3534,161.0,11_40_15_146322
3535,165.0,11_40_15_146373
3536,166.0,11_40_15_146405
3537,164.0,11_40_16_146456
3538,160.0,11_40_16_146489
3539,154.0,11_40_16_146539
3540,149.0,11_40_16_146572
3541,145.0,11_40_16_146623
3542,143.0,11_40_16_146655
3543,141.0,11_40_16_146706
3544,139.0,11_40_16_146739
3545,138.0,11_40_16_146772
3546,138.0,11_40_16_146823
3547,142.0,11_40_16_146856
3548,147.0,11_40_16_146905
3549,155.0,11_40_16_146939
3550,167.0,11_40_16_146989
3551,177.0,11_40_16_147022
3552,185.0,11_40_16_147072
3553,192.0,11_40_16_147106
3554,198.0,11_40_16_147155
3555,202.0,11_40_16_147189
3556,205.0,11_40_16_147239
3557,209.0,11_40_16_147273
3558,210.0,11_40_16_147323
3559,208.0,11_40_16_147356
3560,200.0,11_40_16_147406
3561,191.0,11_40_17_147439
3562,186.0,11_40_17_147472
3563,182.0,11_40_17_147522
3564,180.0,11_40_17_147555
3565,179.0,11_40_17_147606
3566,179.0,11_40_17_147639
3567,179.0,11_40_17_147689
3568,179.0,11_40_17_147723
3569,179.0,11_40_17_147772
3570,178.0,11_40_17_147806
3571,177.0,11_40_17_147856
3572,173.0,11_40_17_147889
3573,170.0,11_40_17_147939
3574,167.0,11_40_17_147972
3575,164.0,11_40_17_148022
3576,160.0,11_40_17_148056
3577,158.0,11_40_17_148106
3578,155.0,11_40_17_148139
3579,152.0,11_40_17_148189
3580,151.0,11_40_17_148222
3581,151.0,11_40_17_148256
3582,152.0,11_40_17_148306
3583,153.0,11_40_17_148338
3584,155.0,11_40_17_148389
3585,158.0,11_40_18_148422
3586,160.0,11_40_18_148472
3587,160.0,11_40_18_148505
3588,160.0,11_40_18_148556
3589,158.0,11_40_18_148589
3590,157.0,11_40_18_148639
3591,154.0,11_40_18_148672
3592,151.0,11_40_18_148722
3593,150.0,11_40_18_148755
3594,148.0,11_40_18_148806
3595,145.0,11_40_18_148839
3596,142.0,11_40_18_148872
3597,142.0,11_40_18_148922
3598,142.0,11_40_18_148956
3599,143.0,11_40_18_149005
3600,144.0,11_40_18_149039
3601,146.0,11_40_18_149089
3602,149.0,11_40_18_149122
3603,152.0,11_40_18_149175
3604,152.0,11_40_18_149206
3605,152.0,11_40_18_149256
3606,151.0,11_40_18_149289
3607,149.0,11_40_18_149339
3608,147.0,11_40_18_149373
3609,144.0,11_40_19_149422
3610,142.0,11_40_19_149456
3611,140.0,11_40_19_149505
3612,137.0,11_40_19_149540
3613,135.0,11_40_19_149589
3614,135.0,11_40_19_149623
3615,135.0,11_40_19_149655
3616,136.0,11_40_19_149706
3617,137.0,11_40_19_149739
3618,139.0,11_40_19_149789
3619,142.0,11_40_19_149822
3620,144.0,11_40_19_149873
3621,144.0,11_40_19_149905
3622,144.0,11_40_19_149956
3623,143.0,11_40_19_149989
3624,141.0,11_40_19_150039
3625,138.0,11_40_19_150072
3626,136.0,11_40_19_150122
3627,134.0,11_40_19_150156
3628,133.0,11_40_19_150206
3629,130.0,11_40_19_150239
3630,129.0,11_40_19_150289
3631,129.0,11_40_19_150322
3632,129.0,11_40_19_150356
3633,130.0,11_40_19_150406
3634,132.0,11_40_20_150439
3635,135.0,11_40_20_150489
3636,138.0,11_40_20_150522
3637,140.0,11_40_20_150572
3638,140.0,11_40_20_150605
3639,141.0,11_40_20_150656
3640,140.0,11_40_20_150689
3641,138.0,11_40_20_150740
3642,136.0,11_40_20_150772
3643,134.0,11_40_20_150822
3644,132.0,11_40_20_150855
3645,129.0,11_40_20_150906
3646,128.0,11_40_20_150939
3647,127.0,11_40_20_150989
3648,126.0,11_40_20_151023
3649,127.0,11_40_20_151072
3650,128.0,11_40_20_151106
3651,130.0,11_40_20_151139
3652,133.0,11_40_20_151189
3653,135.0,11_40_20_151223
3654,138.0,11_40_20_151272
3655,138.0,11_40_20_151305
3656,138.0,11_40_20_151356
3657,136.0,11_40_20_151389
3658,134.0,11_40_21_151439
3659,132.0,11_40_21_151472
3660,130.0,11_40_21_151522
3661,128.0,11_40_21_151556
3662,127.0,11_40_21_151606
3663,124.0,11_40_21_151639
3664,123.0,11_40_21_151690
3665,123.0,11_40_21_151722
3666,124.0,11_40_21_151772
3667,125.0,11_40_21_151806
3668,128.0,11_40_21_151856
3669,130.0,11_40_21_151889
3670,132.0,11_40_21_151923
3671,135.0,11_40_21_151972
3672,135.0,11_40_21_152006
3673,135.0,11_40_21_152056
3674,134.0,11_40_21_152089
3675,132.0,11_40_21_152139
3676,130.0,11_40_21_152172
3677,129.0,11_40_21_152223
3678,127.0,11_40_21_152255
3679,125.0,11_40_21_152305
3680,124.0,11_40_21_152339
3681,123.0,11_40_21_152390
3682,122.0,11_40_22_152423
3683,124.0,11_40_22_152472
3684,125.0,11_40_22_152506
3685,127.0,11_40_22_152539
3686,130.0,11_40_22_152589
3687,134.0,11_40_22_152622
3688,135.0,11_40_22_152672
3689,136.0,11_40_22_152706
3690,135.0,11_40_22_152756
3691,134.0,11_40_22_152789
3692,132.0,11_40_22_152839
3693,130.0,11_40_22_152872
3694,129.0,11_40_22_152923
3695,127.0,11_40_22_152956
3696,126.0,11_40_22_153006
3697,124.0,11_40_22_153039
3698,124.0,11_40_22_153089
3699,124.0,11_40_22_153122
3700,124.0,11_40_22_153173
3701,126.0,11_40_22_153205
3702,128.0,11_40_22_153256
3703,132.0,11_40_22_153290
3704,135.0,11_40_22_153323
3705,136.0,11_40_22_153372
3706,136.0,11_40_22_153406
3707,136.0,11_40_23_153456
3708,135.0,11_40_23_153489
3709,132.0,11_40_23_153540
3710,132.0,11_40_23_153573
3711,130.0,11_40_23_153623
3712,128.0,11_40_23_153655
3713,126.0,11_40_23_153706
3714,125.0,11_40_23_153739
3715,125.0,11_40_23_153789
3716,125.0,11_40_23_153823
3717,126.0,11_40_23_153872
3718,127.0,11_40_23_153906
3719,130.0,11_40_23_153955
3720,133.0,11_40_23_153989
3721,136.0,11_40_23_154022
3722,137.0,11_40_23_154072
3723,137.0,11_40_23_154106
3724,136.0,11_40_23_154156
3725,134.0,11_40_23_154189
3726,133.0,11_40_23_154239
3727,131.0,11_40_23_154272
3728,129.0,11_40_23_154322
3729,127.0,11_40_23_154356
3730,126.0,11_40_23_154406
3731,125.0,11_40_24_154440
3732,124.0,11_40_24_154489
3733,124.0,11_40_24_154523
3734,125.0,11_40_24_154573
3735,126.0,11_40_24_154606
3736,129.0,11_40_24_154656
3737,132.0,11_40_24_154690
3738,135.0,11_40_24_154723
3739,135.0,11_40_24_154773
3740,135.0,11_40_24_154805
3741,133.0,11_40_24_154856
3742,131.0,11_40_24_154890
3743,130.0,11_40_24_154939
3744,127.0,11_40_24_154973
3745,126.0,11_40_24_155022
3746,124.0,11_40_24_155056
3747,122.0,11_40_24_155106
3748,121.0,11_40_24_155140
3749,120.0,11_40_24_155189
3750,120.0,11_40_24_155223
3751,122.0,11_40_24_155256
3752,123.0,11_40_24_155306
3753,126.0,11_40_24_155356
3754,129.0,11_40_24_155389
3755,130.0,11_40_25_155422
3756,131.0,11_40_25_155473
3757,131.0,11_40_25_155506
3758,129.0,11_40_25_155556
3759,128.0,11_40_25_155589
3760,127.0,11_40_25_155639
3761,125.0,11_40_25_155673
3762,123.0,11_40_25_155723
3763,122.0,11_40_25_155756
3764,119.0,11_40_25_155806
3765,119.0,11_40_25_155839
3766,119.0,11_40_25_155873
3767,119.0,11_40_25_155923
3768,121.0,11_40_25_155973
3769,123.0,11_40_25_156006
3770,127.0,11_40_25_156056
3771,129.0,11_40_25_156089
3772,130.0,11_40_25_156140
3773,132.0,11_40_25_156173
3774,130.0,11_40_25_156206
3775,130.0,11_40_25_156256
3776,128.0,11_40_25_156289
3777,126.0,11_40_25_156339
3778,125.0,11_40_25_156373
3779,123.0,11_40_26_156423
3780,123.0,11_40_26_156456
3781,121.0,11_40_26_156506
3782,120.0,11_40_26_156539
3783,120.0,11_40_26_156590
3784,121.0,11_40_26_156623
3785,123.0,11_40_26_156656
3786,124.0,11_40_26_156706
3787,128.0,11_40_26_156739
3788,130.0,11_40_26_156789
3789,132.0,11_40_26_156840
3790,133.0,11_40_26_156873
3791,132.0,11_40_26_156923
3792,131.0,11_40_26_156957
3793,129.0,11_40_26_156990
3794,128.0,11_40_26_157039
3795,126.0,11_40_26_157072
3796,125.0,11_40_26_157123
3797,123.0,11_40_26_157156
3798,122.0,11_40_26_157206
3799,121.0,11_40_26_157239
3800,121.0,11_40_26_157290
3801,122.0,11_40_26_157323
3802,124.0,11_40_26_157373
3803,126.0,11_40_26_157406
3804,129.0,11_40_27_157439
3805,133.0,11_40_27_157490
3806,133.0,11_40_27_157523
3807,134.0,11_40_27_157573
3808,134.0,11_40_27_157622
3809,132.0,11_40_27_157656
3810,131.0,11_40_27_157689
3811,128.0,11_40_27_157740
3812,128.0,11_40_27_157772
3813,126.0,11_40_27_157823
3814,124.0,11_40_27_157856
3815,122.0,11_40_27_157906
3816,122.0,11_40_27_157939
3817,123.0,11_40_27_157989
3818,123.0,11_40_27_158023
3819,126.0,11_40_27_158072
3820,128.0,11_40_27_158106
3821,131.0,11_40_27_158140
3822,134.0,11_40_27_158189
3823,135.0,11_40_27_158223
3824,135.0,11_40_27_158273
3825,133.0,11_40_27_158306
3826,132.0,11_40_27_158356
3827,130.0,11_40_27_158390
3828,128.0,11_40_28_158439
3829,127.0,11_40_28_158473
3830,126.0,11_40_28_158523
3831,124.0,11_40_28_158556
3832,123.0,11_40_28_158607
3833,123.0,11_40_28_158640
3834,123.0,11_40_28_158689
3835,125.0,11_40_28_158723
3836,127.0,11_40_28_158773
3837,130.0,11_40_28_158806
3838,133.0,11_40_28_158840
3839,135.0,11_40_28_158890
3840,136.0,11_40_28_158923
3841,136.0,11_40_28_158973
3842,135.0,11_40_28_159007
3843,133.0,11_40_28_159056
3844,132.0,11_40_28_159106
3845,131.0,11_40_28_159140
3846,129.0,11_40_28_159173
3847,128.0,11_40_28_159223
3848,126.0,11_40_28_159256
3849,125.0,11_40_28_159306
3850,125.0,11_40_28_159340
3851,126.0,11_40_28_159390
3852,127.0,11_40_29_159423
3853,129.0,11_40_29_159473
3854,133.0,11_40_29_159506
3855,135.0,11_40_29_159540
3856,137.0,11_40_29_159590
3857,137.0,11_40_29_159623
3858,137.0,11_40_29_159672
3859,136.0,11_40_29_159706
3860,135.0,11_40_29_159756
3861,132.0,11_40_29_159789
3862,130.0,11_40_29_159840
3863,129.0,11_40_29_159872
3864,127.0,11_40_29_159923
3865,126.0,11_40_29_159956
3866,125.0,11_40_29_160006
3867,125.0,11_40_29_160040
3868,126.0,11_40_29_160090
3869,128.0,11_40_29_160123
3870,130.0,11_40_29_160173
3871,133.0,11_40_29_160206
3872,136.0,11_40_29_160257
3873,138.0,11_40_29_160289
3874,138.0,11_40_29_160323
3875,138.0,11_40_29_160372
3876,137.0,11_40_29_160406
3877,135.0,11_40_30_160457
3878,133.0,11_40_30_160489
3879,131.0,11_40_30_160540
3880,130.0,11_40_30_160573
3881,128.0,11_40_30_160623
3882,126.0,11_40_30_160656
3883,126.0,11_40_30_160706
3884,127.0,11_40_30_160740
3885,128.0,11_40_30_160790
3886,129.0,11_40_30_160823
3887,131.0,11_40_30_160873
3888,134.0,11_40_30_160906
3889,136.0,11_40_30_160957
3890,137.0,11_40_30_160989
3891,138.0,11_40_30_161023
3892,137.0,11_40_30_161073
3893,136.0,11_40_30_161107
3894,134.0,11_40_30_161156
3895,132.0,11_40_30_161190
3896,130.0,11_40_30_161239
3897,128.0,11_40_30_161273
3898,127.0,11_40_30_161323
3899,125.0,11_40_30_161356
3900,125.0,11_40_30_161406
3901,125.0,11_40_31_161439
3902,126.0,11_40_31_161489
3903,126.0,11_40_31_161523
3904,129.0,11_40_31_161573
3905,132.0,11_40_31_161606
3906,133.0,11_40_31_161657
3907,134.0,11_40_31_161689
3908,135.0,11_40_31_161723
3909,134.0,11_40_31_161773
3910,132.0,11_40_31_161806
3911,130.0,11_40_31_161856
3912,129.0,11_40_31_161890
3913,127.0,11_40_31_161940
3914,126.0,11_40_31_161973
3915,125.0,11_40_31_162023
3916,124.0,11_40_31_162057
3917,123.0,11_40_31_162106
3918,124.0,11_40_31_162140
3919,126.0,11_40_31_162190
3920,127.0,11_40_31_162223
3921,131.0,11_40_31_162273
3922,134.0,11_40_31_162306
3923,137.0,11_40_31_162357
3924,139.0,11_40_31_162390
3925,140.0,11_40_32_162440
3926,140.0,11_40_32_162473
3927,139.0,11_40_32_162507
3928,139.0,11_40_32_162556
3929,141.0,11_40_32_162590
3930,139.0,11_40_32_162639
3931,134.0,11_40_32_162673
3932,130.0,11_40_32_162723
3933,127.0,11_40_32_162756
3934,125.0,11_40_32_162806
3935,125.0,11_40_32_162839
3936,125.0,11_40_32_162889
3937,126.0,11_40_32_162923
3938,129.0,11_40_32_162973
3939,135.0,11_40_32_163007
3940,141.0,11_40_32_163056
3941,147.0,11_40_32_163090
3942,151.0,11_40_32_163123
3943,151.0,11_40_32_163173
3944,150.0,11_40_32_163206
3945,150.0,11_40_32_163256
3946,148.0,11_40_32_163290
3947,144.0,11_40_32_163340
3948,138.0,11_40_32_163373
3949,132.0,11_40_33_163423
3950,129.0,11_40_33_163456
3951,127.0,11_40_33_163506
3952,126.0,11_40_33_163539
3953,127.0,11_40_33_163589
3954,128.0,11_40_33_163623
3955,130.0,11_40_33_163674
3956,133.0,11_40_33_163706
3957,136.0,11_40_33_163757
3958,137.0,11_40_33_163789
3959,138.0,11_40_33_163840
3960,137.0,11_40_33_163874
3961,136.0,11_40_33_163907
3962,135.0,11_40_33_163956
3963,133.0,11_40_33_163990
3964,131.0,11_40_33_164040
3965,129.0,11_40_33_164073
3966,127.0,11_40_33_164123
3967,126.0,11_40_33_164157
3968,125.0,11_40_33_164207
3969,125.0,11_40_33_164239
3970,126.0,11_40_33_164290
3971,127.0,11_40_33_164323
3972,130.0,11_40_33_164373
3973,133.0,11_40_33_164406
3974,135.0,11_40_34_164456
3975,136.0,11_40_34_164490
3976,135.0,11_40_34_164540
3977,134.0,11_40_34_164573
3978,133.0,11_40_34_164623
3979,131.0,11_40_34_164656
3980,129.0,11_40_34_164690
3981,126.0,11_40_34_164740
3982,125.0,11_40_34_164773
3983,123.0,11_40_34_164823
3984,122.0,11_40_34_164857
3985,121.0,11_40_34_164906
3986,122.0,11_40_34_164940
3987,123.0,11_40_34_164990
3988,125.0,11_40_34_165023
3989,127.0,11_40_34_165074
3990,130.0,11_40_34_165106
3991,132.0,11_40_34_165156
3992,133.0,11_40_34_165190
3993,133.0,11_40_34_165240
3994,132.0,11_40_34_165273
3995,131.0,11_40_34_165324
3996,129.0,11_40_34_165357
3997,127.0,11_40_34_165407
3998,125.0,11_40_35_165440
3999,124.0,11_40_35_165473
4000,123.0,11_40_35_165523
4001,121.0,11_40_35_165557
4002,121.0,11_40_35_165606
4003,122.0,11_40_35_165640
4004,124.0,11_40_35_165690
4005,126.0,11_40_35_165723
4006,128.0,11_40_35_165773
4007,132.0,11_40_35_165806
4008,134.0,11_40_35_165857
4009,134.0,11_40_35_165890
4010,134.0,11_40_35_165940
4011,134.0,11_40_35_165973
4012,133.0,11_40_35_166023
4013,132.0,11_40_35_166057
4014,131.0,11_40_35_166090
4015,130.0,11_40_35_166140
4016,128.0,11_40_35_166173
4017,126.0,11_40_35_166223
4018,126.0,11_40_35_166256
4019,127.0,11_40_35_166307
4020,129.0,11_40_35_166340
4021,130.0,11_40_35_166390
4022,132.0,11_40_36_166423
4023,136.0,11_40_36_166474
4024,138.0,11_40_36_166507
4025,139.0,11_40_36_166556
4026,140.0,11_40_36_166590
4027,139.0,11_40_36_166640
4028,137.0,11_40_36_166673
4029,135.0,11_40_36_166723
4030,134.0,11_40_36_166757
4031,132.0,11_40_36_166790
4032,130.0,11_40_36_166840
4033,127.0,11_40_36_166873
4034,126.0,11_40_36_166923
4035,125.0,11_40_36_166957
4036,125.0,11_40_36_167007
4037,127.0,11_40_36_167040
4038,128.0,11_40_36_167090
4039,130.0,11_40_36_167123
4040,132.0,11_40_36_167173
4041,135.0,11_40_36_167207
4042,138.0,11_40_36_167257
4043,140.0,11_40_36_167290
4044,141.0,11_40_36_167323
4045,139.0,11_40_36_167373
4046,137.0,11_40_37_167423
4047,134.0,11_40_37_167457
4048,131.0,11_40_37_167507
4049,130.0,11_40_37_167540
4050,127.0,11_40_37_167573
4051,126.0,11_40_37_167624
4052,125.0,11_40_37_167656
4053,125.0,11_40_37_167706
4054,126.0,11_40_37_167740
4055,127.0,11_40_37_167790
4056,130.0,11_40_37_167824
4057,133.0,11_40_37_167873
4058,135.0,11_40_37_167906
4059,136.0,11_40_37_167956
4060,137.0,11_40_37_167990
4061,136.0,11_40_37_168040
4062,136.0,11_40_37_168074
4063,134.0,11_40_37_168123
4064,133.0,11_40_37_168157
4065,132.0,11_40_37_168206
4066,130.0,11_40_37_168240
4067,129.0,11_40_37_168273
4068,128.0,11_40_37_168323
4069,128.0,11_40_37_168357
4070,128.0,11_40_37_168407
4071,130.0,11_40_38_168440
4072,131.0,11_40_38_168490
4073,134.0,11_40_38_168524
4074,137.0,11_40_38_168573
4075,139.0,11_40_38_168607
4076,140.0,11_40_38_168656
4077,141.0,11_40_38_168690
4078,140.0,11_40_38_168724
4079,139.0,11_40_38_168773
4080,136.0,11_40_38_168807
4081,135.0,11_40_38_168856
4082,133.0,11_40_38_168907
4083,131.0,11_40_38_168940
4084,129.0,11_40_38_168990
4085,129.0,11_40_38_169023
4086,129.0,11_40_38_169057
4087,129.0,11_40_38_169106
4088,131.0,11_40_38_169140
4089,134.0,11_40_38_169190
4090,136.0,11_40_38_169224
4091,140.0,11_40_38_169273
4092,142.0,11_40_38_169307
4093,142.0,11_40_38_169356
4094,142.0,11_40_38_169390
4095,141.0,11_40_39_169440
4096,139.0,11_40_39_169473
4097,138.0,11_40_39_169507
4098,137.0,11_40_39_169557
4099,134.0,11_40_39_169607
4100,132.0,11_40_39_169640
4101,131.0,11_40_39_169674
4102,130.0,11_40_39_169723
4103,130.0,11_40_39_169757
4104,131.0,11_40_39_169806
4105,132.0,11_40_39_169840
4106,135.0,11_40_39_169890
4107,138.0,11_40_39_169924
4108,141.0,11_40_39_169973
4109,142.0,11_40_39_170007
4110,143.0,11_40_39_170057
4111,142.0,11_40_39_170090
4112,142.0,11_40_39_170140
4113,140.0,11_40_39_170173
4114,138.0,11_40_39_170207
4115,137.0,11_40_39_170256
4116,135.0,11_40_39_170290
4117,133.0,11_40_39_170340
4118,131.0,11_40_39_170390
4119,131.0,11_40_40_170424
4120,132.0,11_40_40_170457
4121,133.0,11_40_40_170507
4122,134.0,11_40_40_170540
4123,137.0,11_40_40_170591
4124,140.0,11_40_40_170624
4125,143.0,11_40_40_170673
4126,144.0,11_40_40_170707
4127,144.0,11_40_40_170757
4128,143.0,11_40_40_170790
4129,142.0,11_40_40_170840
4130,140.0,11_40_40_170873
4131,138.0,11_40_40_170907
4132,137.0,11_40_40_170957
4133,135.0,11_40_40_170990
4134,134.0,11_40_40_171040
4135,133.0,11_40_40_171073
4136,133.0,11_40_40_171124
4137,133.0,11_40_40_171157
4138,134.0,11_40_40_171207
4139,136.0,11_40_40_171240
4140,139.0,11_40_40_171291
4141,143.0,11_40_40_171324
4142,144.0,11_40_40_171374
4143,146.0,11_40_40_171407
4144,145.0,11_40_41_171457
4145,145.0,11_40_41_171491
4146,144.0,11_40_41_171541
4147,142.0,11_40_41_171573
4148,140.0,11_40_41_171624
4149,138.0,11_40_41_171657
4150,136.0,11_40_41_171691
4151,135.0,11_40_41_171741
4152,133.0,11_40_41_171773
4153,134.0,11_40_41_171824
4154,134.0,11_40_41_171857
4155,136.0,11_40_41_171907
4156,138.0,11_40_41_171941
4157,141.0,11_40_41_171991
4158,144.0,11_40_41_172024
4159,146.0,11_40_41_172074
4160,147.0,11_40_41_172107
4161,147.0,11_40_41_172157
4162,146.0,11_40_41_172190
4163,144.0,11_40_41_172241
4164,142.0,11_40_41_172273
4165,141.0,11_40_41_172324
4166,139.0,11_40_41_172357
4167,137.0,11_40_41_172390
4168,135.0,11_40_42_172440
4169,135.0,11_40_42_172474
4170,135.0,11_40_42_172523
4171,136.0,11_40_42_172557
4172,137.0,11_40_42_172607
4173,140.0,11_40_42_172640
4174,143.0,11_40_42_172690
4175,146.0,11_40_42_172723
4176,147.0,11_40_42_172774
4177,148.0,11_40_42_172807
4178,148.0,11_40_42_172857
4179,147.0,11_40_42_172891
4180,145.0,11_40_42_172941
4181,144.0,11_40_42_172973
4182,142.0,11_40_42_173023
4183,141.0,11_40_42_173057
4184,138.0,11_40_42_173090
4185,137.0,11_40_42_173140
4186,137.0,11_40_42_173174
4187,137.0,11_40_42_173224
4188,138.0,11_40_42_173257
4189,139.0,11_40_42_173307
4190,142.0,11_40_42_173340
4191,146.0,11_40_42_173391
4192,148.0,11_40_43_173424
4193,149.0,11_40_43_173473
4194,150.0,11_40_43_173507
4195,149.0,11_40_43_173557
4196,148.0,11_40_43_173590
4197,146.0,11_40_43_173641
4198,144.0,11_40_43_173673
4199,143.0,11_40_43_173724
4200,141.0,11_40_43_173757
4201,139.0,11_40_43_173791
4202,137.0,11_40_43_173841
4203,137.0,11_40_43_173874
4204,139.0,11_40_43_173924
4205,140.0,11_40_43_173957
4206,141.0,11_40_43_174007
4207,143.0,11_40_43_174041
4208,146.0,11_40_43_174090
4209,148.0,11_40_43_174123
4210,150.0,11_40_43_174173
4211,151.0,11_40_43_174207
4212,150.0,11_40_43_174257
4213,148.0,11_40_43_174291
4214,147.0,11_40_43_174340
4215,145.0,11_40_43_174374
4216,143.0,11_40_44_174423
4217,141.0,11_40_44_174457
4218,139.0,11_40_44_174507
4219,138.0,11_40_44_174540
4220,138.0,11_40_44_174573
4221,138.0,11_40_44_174624
4222,140.0,11_40_44_174657
4223,142.0,11_40_44_174707
4224,144.0,11_40_44_174740
4225,147.0,11_40_44_174791
4226,150.0,11_40_44_174824
4227,150.0,11_40_44_174873
4228,150.0,11_40_44_174907
4229,150.0,11_40_44_174957
4230,149.0,11_40_44_174991
4231,146.0,11_40_44_175040
4232,145.0,11_40_44_175074
4233,143.0,11_40_44_175124
4234,141.0,11_40_44_175157
4235,139.0,11_40_44_175207
4236,139.0,11_40_44_175240
4237,139.0,11_40_44_175291
4238,139.0,11_40_44_175323
4239,140.0,11_40_44_175357
4240,142.0,11_40_44_175407
4241,145.0,11_40_45_175440
4242,148.0,11_40_45_175491
4243,150.0,11_40_45_175523
4244,151.0,11_40_45_175573
4245,150.0,11_40_45_175607
4246,150.0,11_40_45_175657
4247,148.0,11_40_45_175690
4248,146.0,11_40_45_175740
4249,144.0,11_40_45_175774
4250,142.0,11_40_45_175824
4251,141.0,11_40_45_175857
4252,139.0,11_40_45_175907
4253,138.0,11_40_45_175940
4254,138.0,11_40_45_175974
4255,141.0,11_40_45_176024
4256,144.0,11_40_45_176057
4257,146.0,11_40_45_176107
4258,147.0,11_40_45_176141
4259,150.0,11_40_45_176190
4260,152.0,11_40_45_176224
4261,152.0,11_40_45_176274
4262,152.0,11_40_45_176307
4263,151.0,11_40_45_176357
4264,150.0,11_40_45_176390
4265,148.0,11_40_46_176441
4266,146.0,11_40_46_176474
4267,144.0,11_40_46_176524
4268,142.0,11_40_46_176557
4269,140.0,11_40_46_176607
4270,140.0,11_40_46_176641
4271,140.0,11_40_46_176691
4272,141.0,11_40_46_176724
4273,143.0,11_40_46_176758
4274,145.0,11_40_46_176808
4275,149.0,11_40_46_176840
4276,151.0,11_40_46_176891
4277,153.0,11_40_46_176924
4278,154.0,11_40_46_176974
4279,153.0,11_40_46_177007
4280,153.0,11_40_46_177058
4281,151.0,11_40_46_177090
4282,149.0,11_40_46_177140
4283,147.0,11_40_46_177174
4284,145.0,11_40_46_177224
4285,143.0,11_40_46_177257
4286,142.0,11_40_46_177308
4287,141.0,11_40_46_177340
4288,141.0,11_40_46_177391
4289,142.0,11_40_47_177424
4290,144.0,11_40_47_177458
4291,146.0,11_40_47_177507
4292,149.0,11_40_47_177541
4293,151.0,11_40_47_177591
4294,154.0,11_40_47_177624
4295,155.0,11_40_47_177674
4296,154.0,11_40_47_177708
4297,153.0,11_40_47_177757
4298,152.0,11_40_47_177791
4299,150.0,11_40_47_177841
4300,148.0,11_40_47_177873
4301,145.0,11_40_47_177924
4302,144.0,11_40_47_177958
4303,142.0,11_40_47_178007
4304,142.0,11_40_47_178041
4305,142.0,11_40_47_178090
4306,143.0,11_40_47_178124
4307,144.0,11_40_47_178157
4308,146.0,11_40_47_178208
4309,149.0,11_40_47_178241
4310,152.0,11_40_47_178291
4311,154.0,11_40_47_178324
4312,154.0,11_40_47_178374
4313,154.0,11_40_47_178407
4314,153.0,11_40_48_178457
4315,151.0,11_40_48_178491
4316,149.0,11_40_48_178541
4317,148.0,11_40_48_178574
4318,146.0,11_40_48_178624
4319,145.0,11_40_48_178657
4320,142.0,11_40_48_178708
4321,142.0,11_40_48_178740
4322,142.0,11_40_48_178791
4323,143.0,11_40_48_178824
4324,144.0,11_40_48_178874
4325,146.0,11_40_48_178907
4326,150.0,11_40_48_178940
4327,152.0,11_40_48_178991
4328,154.0,11_40_48_179024
4329,155.0,11_40_48_179073
4330,155.0,11_40_48_179107
4331,154.0,11_40_48_179158
4332,152.0,11_40_48_179191
4333,151.0,11_40_48_179240
4334,149.0,11_40_48_179274
4335,147.0,11_40_48_179324
4336,145.0,11_40_48_179357
4337,143.0,11_40_48_179390
4338,143.0,11_40_49_179440
4339,143.0,11_40_49_179490
4340,143.0,11_40_49_179524
4341,144.0,11_40_49_179575
4342,147.0,11_40_49_179608
4343,150.0,11_40_49_179641
4344,153.0,11_40_49_179691
4345,155.0,11_40_49_179724
4346,156.0,11_40_49_179774
4347,156.0,11_40_49_179808
4348,155.0,11_40_49_179857
4349,155.0,11_40_49_179891
4350,152.0,11_40_49_179941
4351,150.0,11_40_49_179974
4352,148.0,11_40_49_180024
4353,147.0,11_40_49_180057
4354,144.0,11_40_49_180091
4355,143.0,11_40_49_180141
4356,143.0,11_40_49_180190
4357,143.0,11_40_49_180224
4358,145.0,11_40_49_180274
4359,147.0,11_40_49_180307
4360,150.0,11_40_49_180340
4361,153.0,11_40_49_180391
4362,155.0,11_40_50_180424
4363,156.0,11_40_50_180474
4364,157.0,11_40_50_180507
4365,156.0,11_40_50_180558
4366,153.0,11_40_50_180590
4367,150.0,11_40_50_180641
4368,149.0,11_40_50_180675
4369,146.0,11_40_50_180725
4370,144.0,11_40_50_180757
4371,142.0,11_40_50_180807
4372,140.0,11_40_50_180840
4373,139.0,11_40_50_180874
4374,140.0,11_40_50_180924
4375,141.0,11_40_50_180975
4376,143.0,11_40_50_181008
4377,145.0,11_40_50_181058
4378,148.0,11_40_50_181091
4379,150.0,11_40_50_181124
4380,151.0,11_40_50_181174
4381,151.0,11_40_50_181208
4382,150.0,11_40_50_181257
4383,148.0,11_40_50_181290
4384,146.0,11_40_50_181341
4385,144.0,11_40_50_181374
4386,143.0,11_40_51_181424
4387,140.0,11_40_51_181457
4388,139.0,11_40_51_181507
4389,137.0,11_40_51_181541
4390,136.0,11_40_51_181574
4391,136.0,11_40_51_181624
4392,138.0,11_40_51_181657
4393,139.0,11_40_51_181708
4394,142.0,11_40_51_181758
4395,145.0,11_40_51_181790
4396,146.0,11_40_51_181824
4397,148.0,11_40_51_181874
4398,148.0,11_40_51_181908
4399,147.0,11_40_51_181957
4400,147.0,11_40_51_181991
4401,144.0,11_40_51_182041
4402,142.0,11_40_51_182074
4403,141.0,11_40_51_182124
4404,140.0,11_40_51_182157
4405,138.0,11_40_51_182207
4406,136.0,11_40_51_182241
4407,136.0,11_40_51_182290
4408,136.0,11_40_51_182324
4409,137.0,11_40_51_182357
4410,139.0,11_40_51_182408
4411,141.0,11_40_52_182458
4412,144.0,11_40_52_182490
4413,145.0,11_40_52_182524
4414,147.0,11_40_52_182574
4415,148.0,11_40_52_182607
4416,147.0,11_40_52_182658
4417,145.0,11_40_52_182691
4418,143.0,11_40_52_182741
4419,142.0,11_40_52_182774
4420,140.0,11_40_52_182825
4421,138.0,11_40_52_182857
4422,136.0,11_40_52_182908
4423,135.0,11_40_52_182941
4424,134.0,11_40_52_182991
4425,135.0,11_40_52_183025
4426,135.0,11_40_52_183057
4427,137.0,11_40_52_183108
4428,140.0,11_40_52_183141
4429,143.0,11_40_52_183191
4430,146.0,11_40_52_183241
4431,147.0,11_40_52_183274
4432,147.0,11_40_52_183308
4433,147.0,11_40_52_183358
4434,146.0,11_40_52_183390
4435,144.0,11_40_53_183441
4436,142.0,11_40_53_183475
4437,140.0,11_40_53_183524
4438,140.0,11_40_53_183558
4439,137.0,11_40_53_183608
4440,136.0,11_40_53_183641
4441,136.0,11_40_53_183691
4442,136.0,11_40_53_183724
4443,137.0,11_40_53_183758
4444,138.0,11_40_53_183808
4445,140.0,11_40_53_183841
4446,144.0,11_40_53_183891
4447,146.0,11_40_53_183924
4448,148.0,11_40_53_183975
4449,148.0,11_40_53_184008
4450,147.0,11_40_53_184057
4451,145.0,11_40_53_184091
4452,144.0,11_40_53_184141
4453,141.0,11_40_53_184174
4454,139.0,11_40_53_184224
4455,137.0,11_40_53_184258
4456,135.0,11_40_53_184308
4457,133.0,11_40_53_184341
4458,132.0,11_40_53_184391
4459,133.0,11_40_54_184424
4460,133.0,11_40_54_184457
4461,139.0,11_40_54_184507
4462,154.0,11_40_54_184541
4463,168.0,11_40_54_184591
4464,177.0,11_40_54_184624
4465,179.0,11_40_54_184675
4466,179.0,11_40_54_184708
4467,178.0,11_40_54_184758
4468,175.0,11_40_54_184791
4469,172.0,11_40_54_184841
4470,167.0,11_40_54_184874
4471,155.0,11_40_54_184925
4472,144.0,11_40_54_184958
4473,137.0,11_40_54_185008
4474,132.0,11_40_54_185041
4475,129.0,11_40_54_185091
4476,128.0,11_40_54_185124
4477,127.0,11_40_54_185158
4478,128.0,11_40_54_185208
4479,130.0,11_40_54_185241
4480,132.0,11_40_54_185291
4481,134.0,11_40_54_185324
4482,136.0,11_40_54_185375
4483,136.0,11_40_54_185408
4484,135.0,11_40_55_185457
4485,135.0,11_40_55_185491
4486,134.0,11_40_55_185541
4487,132.0,11_40_55_185575
4488,130.0,11_40_55_185624
4489,129.0,11_40_55_185657
4490,127.0,11_40_55_185707
4491,126.0,11_40_55_185741
4492,126.0,11_40_55_185791
4493,126.0,11_40_55_185825
4494,127.0,11_40_55_185874
4495,130.0,11_40_55_185908
4496,148.0,11_40_55_185941
4497,161.0,11_40_55_185991
4498,171.0,11_40_55_186024
4499,177.0,11_40_55_186075
4500,179.0,11_40_55_186108
4501,176.0,11_40_55_186158
4502,167.0,11_40_55_186191
4503,156.0,11_40_55_186241
4504,148.0,11_40_55_186276
4505,143.0,11_40_55_186324
4506,142.0,11_40_55_186357
4507,153.0,11_40_55_186407
4508,155.0,11_40_56_186441
4509,145.0,11_40_56_186491
4510,141.0,11_40_56_186524
4511,138.0,11_40_56_186574
4512,137.0,11_40_56_186608
4513,138.0,11_40_56_186641
4514,141.0,11_40_56_186691
4515,143.0,11_40_56_186725
4516,145.0,11_40_56_186774
4517,147.0,11_40_56_186808
4518,146.0,11_40_56_186858
4519,145.0,11_40_56_186891
4520,144.0,11_40_56_186941
4521,142.0,11_40_56_186975
4522,140.0,11_40_56_187024
4523,138.0,11_40_56_187058
4524,137.0,11_40_56_187108
4525,135.0,11_40_56_187141
4526,134.0,11_40_56_187191
4527,135.0,11_40_56_187224
4528,136.0,11_40_56_187275
4529,137.0,11_40_56_187308
4530,140.0,11_40_56_187341
4531,143.0,11_40_56_187391
4532,146.0,11_40_57_187425
4533,149.0,11_40_57_187475
4534,149.0,11_40_57_187508
4535,149.0,11_40_57_187557
4536,148.0,11_40_57_187591
4537,146.0,11_40_57_187641
4538,144.0,11_40_57_187674
4539,142.0,11_40_57_187725
4540,140.0,11_40_57_187758
4541,138.0,11_40_57_187808
4542,135.0,11_40_57_187841
4543,133.0,11_40_57_187892
4544,133.0,11_40_57_187924
4545,133.0,11_40_57_187975
4546,133.0,11_40_57_188008
4547,134.0,11_40_57_188041
4548,137.0,11_40_57_188091
4549,139.0,11_40_57_188124
4550,140.0,11_40_57_188174
4551,140.0,11_40_57_188208
4552,139.0,11_40_57_188258
4553,137.0,11_40_57_188291
4554,134.0,11_40_57_188341
4555,131.0,11_40_57_188374
4556,129.0,11_40_58_188424
4557,126.0,11_40_58_188458
4558,124.0,11_40_58_188508
4559,122.0,11_40_58_188541
4560,120.0,11_40_58_188591
4561,119.0,11_40_58_188625
4562,119.0,11_40_58_188674
4563,119.0,11_40_58_188708
4564,120.0,11_40_58_188757
4565,123.0,11_40_58_188792
4566,125.0,11_40_58_188825
4567,127.0,11_40_58_188875
4568,128.0,11_40_58_188908
4569,128.0,11_40_58_188958
4570,128.0,11_40_58_188992
4571,126.0,11_40_58_189041
4572,124.0,11_40_58_189074
4573,122.0,11_40_58_189125
4574,120.0,11_40_58_189158
4575,119.0,11_40_58_189208
4576,117.0,11_40_58_189241
4577,116.0,11_40_58_189291
4578,116.0,11_40_58_189325
4579,115.0,11_40_58_189374
4580,116.0,11_40_58_189408
4581,117.0,11_40_59_189457
4582,119.0,11_40_59_189491
4583,124.0,11_40_59_189524
4584,126.0,11_40_59_189575
4585,127.0,11_40_59_189608
4586,127.0,11_40_59_189658
4587,127.0,11_40_59_189691
4588,127.0,11_40_59_189741
4589,125.0,11_40_59_189774
4590,123.0,11_40_59_189824
4591,122.0,11_40_59_189858
4592,121.0,11_40_59_189908
4593,119.0,11_40_59_189941
4594,118.0,11_40_59_189991
4595,118.0,11_40_59_190025
4596,117.0,11_40_59_190075
4597,119.0,11_40_59_190108
4598,120.0,11_40_59_190158
4599,121.0,11_40_59_190191
4600,125.0,11_40_59_190241
4601,128.0,11_40_59_190275
4602,129.0,11_40_59_190308
4603,131.0,11_40_59_190358
4604,130.0,11_40_59_190391
4605,129.0,11_41_0_190441
4606,127.0,11_41_0_190474
4607,126.0,11_41_0_190524
4608,125.0,11_41_0_190558
