position,GSR_Reading,Time_Stamp
0,NaN,8_29_15_575
1,703.0,8_29_15_588
2,666.0,8_29_15_605
3,466.0,8_29_15_622
4,226.0,8_29_15_638
5,183.0,8_29_15_655
6,287.0,8_29_15_672
7,459.0,8_29_15_688
8,675.0,8_29_15_705
9,699.0,8_29_15_722
10,584.0,8_29_15_739
11,415.0,8_29_15_755
12,191.0,8_29_15_771
13,195.0,8_29_15_789
14,334.0,8_29_15_805
15,510.0,8_29_15_822
16,713.0,8_29_15_839
17,683.0,8_29_15_855
18,530.0,8_29_15_872
19,327.0,8_29_15_888
20,169.0,8_29_15_905
21,224.0,8_29_15_921
22,387.0,8_29_15_939
23,NaN,8_29_16_1905
24,745.0,8_29_16_1921
25,759.0,8_29_16_1938
26,771.0,8_29_16_1955
27,774.0,8_29_16_1972
28,769.0,8_29_16_1988
29,764.0,8_29_16_2005
30,761.0,8_29_16_2022
31,762.0,8_29_16_2039
32,758.0,8_29_16_2055
33,754.0,8_29_16_2071
34,750.0,8_29_16_2088
35,742.0,8_29_16_2105
36,728.0,8_29_16_2122
37,705.0,8_29_16_2139
38,631.0,8_29_16_2155
39,469.0,8_29_16_2171
40,264.0,8_29_16_2188
41,279.0,8_29_16_2205
42,423.0,8_29_16_2222
43,609.0,8_29_16_2238
44,777.0,8_29_16_2255
45,737.0,8_29_16_2272
46,581.0,8_29_16_2288
47,368.0,8_29_16_2305
48,246.0,8_29_16_2322
49,321.0,8_29_16_2339
50,475.0,8_29_16_2355
51,698.0,8_29_16_2372
52,762.0,8_29_16_2389
53,686.0,8_29_16_2405
54,530.0,8_29_16_2422
55,303.0,8_29_16_2439
56,262.0,8_29_16_2455
57,358.0,8_29_16_2472
58,529.0,8_29_16_2488
59,741.0,8_29_16_2505
60,758.0,8_29_16_2521
61,639.0,8_29_17_2538
62,472.0,8_29_17_2555
63,266.0,8_29_17_2572
64,273.0,8_29_17_2588
65,411.0,8_29_17_2605
66,591.0,8_29_17_2621
67,769.0,8_29_17_2639
68,736.0,8_29_17_2655
69,589.0,8_29_17_2671
70,382.0,8_29_17_2688
71,244.0,8_29_17_2705
72,307.0,8_29_17_2722
73,461.0,8_29_17_2738
74,684.0,8_29_17_2755
75,764.0,8_29_17_2771
76,691.0,8_29_17_2788
77,537.0,8_29_17_2805
78,302.0,8_29_17_2822
79,256.0,8_29_17_2838
80,348.0,8_29_17_2855
81,518.0,8_29_17_2876
82,729.0,8_29_17_2893
83,754.0,8_29_17_2909
84,648.0,8_29_17_2925
85,480.0,8_29_17_2942
86,268.0,8_29_17_2959
87,264.0,8_29_17_2975
88,398.0,8_29_17_2992
89,567.0,8_29_17_3009
90,761.0,8_29_17_3025
91,738.0,8_29_17_3042
92,595.0,8_29_17_3059
93,399.0,8_29_17_3076
94,240.0,8_29_17_3092
95,288.0,8_29_17_3109
96,447.0,8_29_17_3126
97,663.0,8_29_17_3142
98,767.0,8_29_17_3159
99,693.0,8_29_17_3175
100,544.0,8_29_17_3192
101,311.0,8_29_17_3209
102,253.0,8_29_17_3225
103,338.0,8_29_17_3242
104,503.0,8_29_17_3258
105,716.0,8_29_17_3275
106,753.0,8_29_17_3292
107,653.0,8_29_17_3309
108,489.0,8_29_17_3326
109,270.0,8_29_17_3342
110,258.0,8_29_17_3359
111,384.0,8_29_17_3375
112,554.0,8_29_17_3392
113,753.0,8_29_17_3408
114,738.0,8_29_17_3426
115,597.0,8_29_17_3442
116,413.0,8_29_17_3459
117,238.0,8_29_17_3476
118,282.0,8_29_17_3492
119,437.0,8_29_17_3508
120,647.0,8_29_17_3525
121,766.0,8_29_18_3542
122,700.0,8_29_18_3559
123,550.0,8_29_18_3575
124,318.0,8_29_18_3592
125,239.0,8_29_18_3608
126,325.0,8_29_18_3626
127,490.0,8_29_18_3642
128,713.0,8_29_18_3658
129,749.0,8_29_18_3675
130,655.0,8_29_18_3692
131,490.0,8_29_18_3708
132,271.0,8_29_18_3725
133,254.0,8_29_18_3742
134,367.0,8_29_18_3759
135,542.0,8_29_18_3775
136,746.0,8_29_18_3792
137,743.0,8_29_18_3809
138,603.0,8_29_18_3826
139,420.0,8_29_18_3842
140,231.0,8_29_18_3859
141,269.0,8_29_18_3875
142,424.0,8_29_18_3892
143,628.0,8_29_18_3908
144,760.0,8_29_18_3925
145,703.0,8_29_18_3942
146,553.0,8_29_18_3958
147,324.0,8_29_18_3975
148,236.0,8_29_18_3992
149,313.0,8_29_18_4009
150,477.0,8_29_18_4025
151,706.0,8_29_18_4042
152,745.0,8_29_18_4059
153,657.0,8_29_18_4076
154,491.0,8_29_18_4092
155,272.0,8_29_18_4109
156,245.0,8_29_18_4126
157,358.0,8_29_18_4142
158,530.0,8_29_18_4159
159,734.0,8_29_18_4175
160,738.0,8_29_18_4192
161,605.0,8_29_18_4209
162,437.0,8_29_18_4226
163,234.0,8_29_18_4242
164,259.0,8_29_18_4259
165,413.0,8_29_18_4275
166,608.0,8_29_18_4293
167,758.0,8_29_18_4308
168,709.0,8_29_18_4326
169,554.0,8_29_18_4342
170,335.0,8_29_18_4359
171,231.0,8_29_18_4376
172,306.0,8_29_18_4392
173,461.0,8_29_18_4408
174,690.0,8_29_18_4425
175,749.0,8_29_18_4442
176,659.0,8_29_18_4459
177,496.0,8_29_18_4475
178,273.0,8_29_18_4492
179,244.0,8_29_18_4509
180,350.0,8_29_18_4526
181,518.0,8_29_19_4542
182,724.0,8_29_19_4559
183,736.0,8_29_19_4575
184,615.0,8_29_19_4592
185,445.0,8_29_19_4608
186,238.0,8_29_19_4625
187,249.0,8_29_19_4642
188,402.0,8_29_19_4658
189,588.0,8_29_19_4675
190,759.0,8_29_19_4692
191,710.0,8_29_19_4709
192,559.0,8_29_19_4725
193,348.0,8_29_19_4742
194,228.0,8_29_19_4759
195,297.0,8_29_19_4775
196,447.0,8_29_19_4792
197,675.0,8_29_19_4808
198,744.0,8_29_19_4825
199,667.0,8_29_19_4842
200,506.0,8_29_19_4859
201,277.0,8_29_19_4888
202,238.0,8_29_19_4904
203,336.0,8_29_19_4921
204,511.0,8_29_19_4938
205,718.0,8_29_19_4955
206,735.0,8_29_19_4971
207,618.0,8_29_19_4988
208,451.0,8_29_19_5004
209,245.0,8_29_19_5021
210,250.0,8_29_19_5038
211,387.0,8_29_19_5055
212,562.0,8_29_19_5071
213,751.0,8_29_19_5088
214,720.0,8_29_19_5104
215,567.0,8_29_19_5121
216,358.0,8_29_19_5138
217,220.0,8_29_19_5154
218,281.0,8_29_19_5171
219,441.0,8_29_19_5188
220,658.0,8_29_19_5204
221,741.0,8_29_19_5221
222,670.0,8_29_19_5238
223,519.0,8_29_19_5255
224,282.0,8_29_19_5271
225,231.0,8_29_19_5288
226,323.0,8_29_19_5305
227,496.0,8_29_19_5322
228,712.0,8_29_19_5338
229,733.0,8_29_19_5354
230,622.0,8_29_19_5372
231,456.0,8_29_19_5387
232,247.0,8_29_19_5404
233,242.0,8_29_19_5421
234,372.0,8_29_19_5438
235,542.0,8_29_19_5455
236,740.0,8_29_19_5471
237,723.0,8_29_19_5487
238,572.0,8_29_19_5505
239,377.0,8_29_19_5521
240,210.0,8_29_20_5537
241,264.0,8_29_20_5554
242,425.0,8_29_20_5572
243,636.0,8_29_20_5588
244,744.0,8_29_20_5605
245,672.0,8_29_20_5621
246,529.0,8_29_20_5637
247,293.0,8_29_20_5654
248,224.0,8_29_20_5671
249,307.0,8_29_20_5687
250,474.0,8_29_20_5704
251,699.0,8_29_20_5721
252,735.0,8_29_20_5738
253,634.0,8_29_20_5754
254,466.0,8_29_20_5771
255,248.0,8_29_20_5787
256,236.0,8_29_20_5804
257,355.0,8_29_20_5821
258,525.0,8_29_20_5838
259,724.0,8_29_20_5854
260,720.0,8_29_20_5871
261,585.0,8_29_20_5888
262,403.0,8_29_20_5905
263,214.0,8_29_20_5921
264,251.0,8_29_20_5938
265,409.0,8_29_20_5954
266,621.0,8_29_20_5971
267,748.0,8_29_20_5987
268,683.0,8_29_20_6004
269,532.0,8_29_20_6021
270,304.0,8_29_20_6038
271,226.0,8_29_20_6054
272,297.0,8_29_20_6071
273,458.0,8_29_20_6088
274,690.0,8_29_20_6105
275,733.0,8_29_20_6121
276,646.0,8_29_20_6138
277,475.0,8_29_20_6154
278,252.0,8_29_20_6171
279,231.0,8_29_20_6187
280,345.0,8_29_20_6204
281,518.0,8_29_20_6221
282,722.0,8_29_20_6238
283,723.0,8_29_20_6255
284,590.0,8_29_20_6271
285,418.0,8_29_20_6288
286,219.0,8_29_20_6304
287,244.0,8_29_20_6321
288,400.0,8_29_20_6338
289,599.0,8_29_20_6354
290,750.0,8_29_20_6371
291,694.0,8_29_20_6388
292,535.0,8_29_20_6405
293,313.0,8_29_20_6421
294,217.0,8_29_20_6438
295,294.0,8_29_20_6455
296,452.0,8_29_20_6471
297,682.0,8_29_20_6488
298,733.0,8_29_20_6505
299,644.0,8_29_20_6521
300,479.0,8_29_21_6538
301,257.0,8_29_21_6554
302,227.0,8_29_21_6571
303,336.0,8_29_21_6588
304,509.0,8_29_21_6604
305,719.0,8_29_21_6621
306,721.0,8_29_21_6638
307,594.0,8_29_21_6654
308,425.0,8_29_21_6671
309,223.0,8_29_21_6688
310,242.0,8_29_21_6704
311,390.0,8_29_21_6721
312,579.0,8_29_21_6737
313,745.0,8_29_21_6754
314,699.0,8_29_21_6771
315,542.0,8_29_21_6788
316,322.0,8_29_21_6805
317,206.0,8_29_21_6821
318,286.0,8_29_21_6838
319,441.0,8_29_21_6855
320,666.0,8_29_21_6871
321,730.0,8_29_21_6888
322,645.0,8_29_21_6904
323,487.0,8_29_21_6921
324,258.0,8_29_21_6937
325,222.0,8_29_21_6955
326,323.0,8_29_21_6971
327,497.0,8_29_21_6988
328,712.0,8_29_21_7005
329,722.0,8_29_21_7021
330,602.0,8_29_21_7038
331,429.0,8_29_21_7054
332,224.0,8_29_21_7071
333,232.0,8_29_21_7088
334,377.0,8_29_21_7104
335,559.0,8_29_21_7121
336,736.0,8_29_21_7138
337,701.0,8_29_21_7154
338,548.0,8_29_21_7171
339,341.0,8_29_21_7188
340,203.0,8_29_21_7204
341,268.0,8_29_21_7221
342,428.0,8_29_21_7238
343,652.0,8_29_21_7254
344,732.0,8_29_21_7271
345,652.0,8_29_21_7288
346,494.0,8_29_21_7304
347,260.0,8_29_21_7321
348,217.0,8_29_21_7338
349,313.0,8_29_21_7355
350,484.0,8_29_21_7371
351,697.0,8_29_21_7388
352,721.0,8_29_21_7404
353,611.0,8_29_21_7421
354,439.0,8_29_21_7438
355,224.0,8_29_21_7454
356,224.0,8_29_21_7471
357,365.0,8_29_21_7487
358,538.0,8_29_21_7504
359,730.0,8_29_21_7521
360,703.0,8_29_22_7538
361,554.0,8_29_22_7554
362,357.0,8_29_22_7571
363,202.0,8_29_22_7588
364,253.0,8_29_22_7605
365,416.0,8_29_22_7621
366,633.0,8_29_22_7638
367,735.0,8_29_22_7655
368,659.0,8_29_22_7671
369,504.0,8_29_22_7688
370,272.0,8_29_22_7704
371,211.0,8_29_22_7721
372,306.0,8_29_22_7737
373,473.0,8_29_22_7754
374,689.0,8_29_22_7771
375,719.0,8_29_22_7788
376,614.0,8_29_22_7804
377,448.0,8_29_22_7821
378,230.0,8_29_22_7838
379,223.0,8_29_22_7854
380,352.0,8_29_22_7871
381,525.0,8_29_22_7976
382,724.0,8_29_22_7992
383,706.0,8_29_22_8009
384,560.0,8_29_22_8026
385,371.0,8_29_22_8042
386,200.0,8_29_22_8059
387,245.0,8_29_22_8076
388,403.0,8_29_22_8092
389,616.0,8_29_22_8109
390,732.0,8_29_22_8126
391,662.0,8_29_22_8142
392,513.0,8_29_22_8159
393,279.0,8_29_22_8176
394,206.0,8_29_22_8192
395,293.0,8_29_22_8209
396,461.0,8_29_22_8226
397,682.0,8_29_22_8242
398,718.0,8_29_22_8259
399,618.0,8_29_22_8276
400,452.0,8_29_22_8293
401,235.0,8_29_22_8309
402,218.0,8_29_22_8326
403,336.0,8_29_22_8342
404,511.0,8_29_22_8359
405,715.0,8_29_22_8376
406,710.0,8_29_22_8392
407,569.0,8_29_22_8409
408,386.0,8_29_22_8426
409,199.0,8_29_22_8442
410,235.0,8_29_22_8459
411,391.0,8_29_22_8476
412,596.0,8_29_22_8493
413,729.0,8_29_22_8509
414,672.0,8_29_22_8526
415,520.0,8_29_23_8542
416,290.0,8_29_23_8559
417,200.0,8_29_23_8576
418,279.0,8_29_23_8593
419,444.0,8_29_23_8609
420,672.0,8_29_23_8626
421,716.0,8_29_23_8642
422,624.0,8_29_23_8659
423,458.0,8_29_23_8676
424,238.0,8_29_23_8692
425,214.0,8_29_23_8709
426,327.0,8_29_23_8726
427,496.0,8_29_23_8742
428,702.0,8_29_23_8759
429,706.0,8_29_23_8775
430,575.0,8_29_23_8793
431,407.0,8_29_23_8809
432,201.0,8_29_23_8826
433,227.0,8_29_23_8842
434,380.0,8_29_23_8859
435,577.0,8_29_23_8876
436,730.0,8_29_23_8892
437,677.0,8_29_23_8909
438,521.0,8_29_23_8926
439,305.0,8_29_23_8942
440,199.0,8_29_23_8959
441,274.0,8_29_23_8976
442,428.0,8_29_23_8992
443,657.0,8_29_23_9009
444,721.0,8_29_23_9026
445,632.0,8_29_23_9042
446,466.0,8_29_23_9059
447,237.0,8_29_23_9076
448,211.0,8_29_23_9092
449,320.0,8_29_23_9109
450,488.0,8_29_23_9126
451,697.0,8_29_23_9142
452,706.0,8_29_23_9159
453,585.0,8_29_23_9176
454,416.0,8_29_23_9192
455,209.0,8_29_23_9209
456,221.0,8_29_23_9225
457,369.0,8_29_23_9242
458,557.0,8_29_23_9259
459,730.0,8_29_23_9276
460,684.0,8_29_23_9292
461,531.0,8_29_23_9309
462,319.0,8_29_23_9326
463,197.0,8_29_23_9342
464,266.0,8_29_23_9359
465,417.0,8_29_23_9376
466,641.0,8_29_23_9392
467,717.0,8_29_23_9409
468,640.0,8_29_23_9426
469,480.0,8_29_23_9443
470,248.0,8_29_23_9459
471,208.0,8_29_23_9475
472,307.0,8_29_23_9492
473,481.0,8_29_23_9509
474,690.0,8_29_23_9526
475,708.0,8_29_24_9543
476,592.0,8_29_24_9559
477,425.0,8_29_24_9575
478,216.0,8_29_24_9592
479,218.0,8_29_24_9609
480,357.0,8_29_24_9626
481,530.0,8_29_24_9643
482,722.0,8_29_24_9659
483,694.0,8_29_24_9676
484,539.0,8_29_24_9693
485,334.0,8_29_24_9709
486,189.0,8_29_24_9725
487,250.0,8_29_24_9742
488,413.0,8_29_24_9759
489,629.0,8_29_24_9776
490,714.0,8_29_24_9793
491,645.0,8_29_24_9809
492,492.0,8_29_24_9825
493,255.0,8_29_24_9842
494,200.0,8_29_24_9859
495,295.0,8_29_24_9876
496,468.0,8_29_24_9892
497,686.0,8_29_24_9909
498,707.0,8_29_24_9926
499,597.0,8_29_24_9943
500,431.0,8_29_24_9959
501,219.0,8_29_24_9977
502,214.0,8_29_24_9993
503,346.0,8_29_24_10009
504,515.0,8_29_24_10025
505,713.0,8_29_24_10042
506,697.0,8_29_24_10060
507,546.0,8_29_24_10076
508,353.0,8_29_24_10092
509,185.0,8_29_24_10109
510,237.0,8_29_24_10126
511,399.0,8_29_24_10143
512,613.0,8_29_24_10159
513,720.0,8_29_24_10175
514,645.0,8_29_24_10193
515,498.0,8_29_24_10209
516,267.0,8_29_24_10226
517,200.0,8_29_24_10242
518,286.0,8_29_24_10259
519,453.0,8_29_24_10276
520,673.0,8_29_24_10293
521,706.0,8_29_24_10309
522,606.0,8_29_24_10326
523,438.0,8_29_24_10342
524,218.0,8_29_24_10359
525,210.0,8_29_24_10376
526,334.0,8_29_24_10392
527,506.0,8_29_24_10409
528,703.0,8_29_24_10426
529,694.0,8_29_24_10442
530,551.0,8_29_24_10459
531,372.0,8_29_24_10475
532,189.0,8_29_24_10492
533,225.0,8_29_24_10509
534,386.0,8_29_24_10526
535,597.0,8_29_25_10543
536,723.0,8_29_25_10559
537,653.0,8_29_25_10576
538,503.0,8_29_25_10592
539,275.0,8_29_25_10609
540,198.0,8_29_25_10626
541,277.0,8_29_25_10642
542,440.0,8_29_25_10659
543,666.0,8_29_25_10676
544,707.0,8_29_25_10693
545,614.0,8_29_25_10709
546,445.0,8_29_25_10726
547,224.0,8_29_25_10743
548,205.0,8_29_25_10759
549,322.0,8_29_25_10775
550,496.0,8_29_25_10792
551,698.0,8_29_25_10809
552,696.0,8_29_25_10826
553,561.0,8_29_25_10843
554,392.0,8_29_25_10859
555,195.0,8_29_25_10875
556,221.0,8_29_25_10892
557,376.0,8_29_25_10909
558,573.0,8_29_25_10926
559,722.0,8_29_25_10943
560,669.0,8_29_25_10959
561,510.0,8_29_25_10976
562,286.0,8_29_25_10993
563,189.0,8_29_25_11009
564,270.0,8_29_25_11026
565,428.0,8_29_25_11042
566,652.0,8_29_25_11059
567,707.0,8_29_25_11076
568,618.0,8_29_25_11093
569,457.0,8_29_25_11109
570,234.0,8_29_25_11126
571,200.0,8_29_25_11143
572,310.0,8_29_25_11159
573,484.0,8_29_25_11175
574,694.0,8_29_25_11192
575,697.0,8_29_25_11209
576,568.0,8_29_25_11226
577,400.0,8_29_25_11243
578,198.0,8_29_25_11259
579,217.0,8_29_25_11276
580,366.0,8_29_25_11293
581,551.0,8_29_25_11309
582,718.0,8_29_25_11326
583,674.0,8_29_25_11343
584,519.0,8_29_25_11359
585,302.0,8_29_25_11375
586,182.0,8_29_25_11392
587,261.0,8_29_25_11409
588,417.0,8_29_25_11426
589,642.0,8_29_25_11442
590,706.0,8_29_25_11459
591,622.0,8_29_25_11476
592,462.0,8_29_25_11493
593,237.0,8_29_25_11509
594,199.0,8_29_25_11526
595,300.0,8_29_26_11542
596,472.0,8_29_26_11559
597,686.0,8_29_26_11576
598,698.0,8_29_26_11593
599,579.0,8_29_26_11610
600,406.0,8_29_26_11625
601,200.0,8_29_26_11642
602,209.0,8_29_26_11659
603,355.0,8_29_26_11676
604,533.0,8_29_26_11693
605,712.0,8_29_26_11709
606,680.0,8_29_26_11725
607,525.0,8_29_26_11742
608,319.0,8_29_26_11759
609,182.0,8_29_26_11776
610,245.0,8_29_26_11792
611,404.0,8_29_26_11809
612,627.0,8_29_26_11825
613,710.0,8_29_26_11842
614,630.0,8_29_26_11859
615,474.0,8_29_26_11876
616,241.0,8_29_26_11893
617,197.0,8_29_26_11909
618,291.0,8_29_26_11925
619,462.0,8_29_26_11942
620,672.0,8_29_26_11959
621,700.0,8_29_26_11976
622,589.0,8_29_26_11992
623,418.0,8_29_26_12009
624,205.0,8_29_26_12026
625,205.0,8_29_26_12043
626,342.0,8_29_26_12059
627,513.0,8_29_26_12076
628,706.0,8_29_26_12093
629,680.0,8_29_26_12110
630,533.0,8_29_26_12125
631,338.0,8_29_26_12142
632,181.0,8_29_26_12159
633,230.0,8_29_26_12176
634,394.0,8_29_26_12193
635,611.0,8_29_26_12209
636,714.0,8_29_26_12226
637,633.0,8_29_26_12243
638,483.0,8_29_26_12260
639,251.0,8_29_26_12275
640,190.0,8_29_26_12292
641,284.0,8_29_26_12309
642,452.0,8_29_26_12325
643,670.0,8_29_26_12343
644,700.0,8_29_26_12359
645,593.0,8_29_26_12376
646,427.0,8_29_26_12392
647,210.0,8_29_26_12409
648,202.0,8_29_26_12426
649,326.0,8_29_26_12442
650,505.0,8_29_26_12459
651,706.0,8_29_26_12476
652,690.0,8_29_26_12492
653,540.0,8_29_26_12509
654,350.0,8_29_26_12526
655,179.0,8_29_27_12543
656,226.0,8_29_27_12559
657,384.0,8_29_27_12576
658,597.0,8_29_27_12592
659,711.0,8_29_27_12609
660,643.0,8_29_27_12626
661,495.0,8_29_27_12643
662,262.0,8_29_27_12659
663,185.0,8_29_27_12675
664,270.0,8_29_27_12692
665,440.0,8_29_27_12709
666,663.0,8_29_27_12726
667,700.0,8_29_27_12743
668,600.0,8_29_27_12759
669,432.0,8_29_27_12776
670,215.0,8_29_27_12793
671,197.0,8_29_27_12809
672,316.0,8_29_27_12826
673,490.0,8_29_27_12843
674,694.0,8_29_27_12859
675,692.0,8_29_27_12876
676,549.0,8_29_27_12919
677,370.0,8_29_27_12959
678,179.0,8_29_27_12975
679,213.0,8_29_27_12991
680,373.0,8_29_27_13008
681,575.0,8_29_27_13025
682,713.0,8_29_27_13042
683,654.0,8_29_27_13058
684,500.0,8_29_27_13075
685,272.0,8_29_27_13092
686,182.0,8_29_27_13108
687,261.0,8_29_27_13125
688,424.0,8_29_27_13142
689,654.0,8_29_27_13159
690,699.0,8_29_27_13175
691,605.0,8_29_27_13191
692,440.0,8_29_27_13209
693,218.0,8_29_27_13225
694,194.0,8_29_27_13241
695,309.0,8_29_27_13259
696,478.0,8_29_27_13275
697,686.0,8_29_27_13292
698,690.0,8_29_27_13308
699,559.0,8_29_27_13325
700,389.0,8_29_27_13342
701,182.0,8_29_27_13359
702,206.0,8_29_27_13376
703,363.0,8_29_27_13391
704,560.0,8_29_27_13409
705,714.0,8_29_27_13425
706,662.0,8_29_27_13442
707,504.0,8_29_27_13458
708,290.0,8_29_27_13475
709,181.0,8_29_27_13492
710,254.0,8_29_27_13508
711,408.0,8_29_27_13525
712,641.0,8_29_28_13542
713,705.0,8_29_28_13559
714,616.0,8_29_28_13575
715,449.0,8_29_28_13591
716,220.0,8_29_28_13609
717,191.0,8_29_28_13625
718,300.0,8_29_28_13642
719,471.0,8_29_28_13658
720,678.0,8_29_28_13675
721,691.0,8_29_28_13692
722,569.0,8_29_28_13708
723,401.0,8_29_28_13725
724,194.0,8_29_28_13742
725,199.0,8_29_28_13758
726,348.0,8_29_28_13775
727,534.0,8_29_28_13792
728,713.0,8_29_28_13808
729,671.0,8_29_28_13825
730,518.0,8_29_28_13842
731,304.0,8_29_28_13858
732,175.0,8_29_28_13875
733,241.0,8_29_28_13892
734,397.0,8_29_28_13909
735,621.0,8_29_28_13926
736,701.0,8_29_28_13941
737,627.0,8_29_28_13958
738,470.0,8_29_28_13975
739,232.0,8_29_28_13992
740,186.0,8_29_28_14009
741,282.0,8_29_28_14025
742,457.0,8_29_28_14042
743,672.0,8_29_28_14059
744,695.0,8_29_28_14075
745,579.0,8_29_28_14092
746,412.0,8_29_28_14109
747,203.0,8_29_28_14125
748,196.0,8_29_28_14142
749,335.0,8_29_28_14158
750,506.0,8_29_28_14175
751,704.0,8_29_28_14192
752,680.0,8_29_28_14209
753,527.0,8_29_28_14225
754,324.0,8_29_28_14242
755,169.0,8_29_28_14259
756,226.0,8_29_28_14275
757,389.0,8_29_28_14291
758,605.0,8_29_28_14308
759,702.0,8_29_28_14325
760,631.0,8_29_28_14342
761,482.0,8_29_28_14359
762,242.0,8_29_28_14375
763,182.0,8_29_28_14392
764,272.0,8_29_28_14408
765,444.0,8_29_28_14425
766,664.0,8_29_28_14442
767,691.0,8_29_28_14459
768,587.0,8_29_28_14475
769,421.0,8_29_28_14492
770,206.0,8_29_28_14509
771,194.0,8_29_28_14525
772,321.0,8_29_29_14542
773,492.0,8_29_29_14558
774,694.0,8_29_29_14575
775,683.0,8_29_29_14592
776,535.0,8_29_29_14609
777,344.0,8_29_29_14625
778,168.0,8_29_29_14642
779,214.0,8_29_29_14659
780,376.0,8_29_29_14676
781,591.0,8_29_29_14692
782,706.0,8_29_29_14708
783,631.0,8_29_29_14725
784,487.0,8_29_29_14742
785,254.0,8_29_29_14759
786,184.0,8_29_29_14775
787,263.0,8_29_29_14792
788,427.0,8_29_29_14808
789,652.0,8_29_29_14826
790,694.0,8_29_29_14842
791,598.0,8_29_29_14859
792,427.0,8_29_29_14875
793,206.0,8_29_29_14892
794,190.0,8_29_29_14908
795,314.0,8_29_29_14925
796,486.0,8_29_29_14942
797,685.0,8_29_29_14959
798,681.0,8_29_29_14975
799,543.0,8_29_29_14992
800,367.0,8_29_29_15008
801,175.0,8_29_29_15025
802,205.0,8_29_29_15042
803,363.0,8_29_29_15058
804,573.0,8_29_29_15075
805,713.0,8_29_29_15092
806,645.0,8_29_29_15108
807,491.0,8_29_29_15125
808,266.0,8_29_29_15142
809,180.0,8_29_29_15158
810,257.0,8_29_29_15175
811,416.0,8_29_29_15192
812,648.0,8_29_29_15209
813,694.0,8_29_29_15226
814,604.0,8_29_29_15242
815,434.0,8_29_29_15259
816,212.0,8_29_29_15275
817,189.0,8_29_29_15292
818,304.0,8_29_29_15309
819,478.0,8_29_29_15325
820,685.0,8_29_29_15342
821,686.0,8_29_29_15358
822,551.0,8_29_29_15375
823,381.0,8_29_29_15392
824,182.0,8_29_29_15409
825,204.0,8_29_29_15425
826,360.0,8_29_29_15442
827,554.0,8_29_29_15459
828,708.0,8_29_29_15475
829,658.0,8_29_29_15492
830,499.0,8_29_29_15509
831,279.0,8_29_29_15526
832,176.0,8_29_30_15542
833,255.0,8_29_30_15558
834,411.0,8_29_30_15575
835,636.0,8_29_30_15592
836,693.0,8_29_30_15609
837,607.0,8_29_30_15625
838,444.0,8_29_30_15642
839,220.0,8_29_30_15659
840,188.0,8_29_30_15676
841,296.0,8_29_30_15692
842,469.0,8_29_30_15709
843,679.0,8_29_30_15725
844,682.0,8_29_30_15742
845,558.0,8_29_30_15758
846,389.0,8_29_30_15775
847,187.0,8_29_30_15791
848,204.0,8_29_30_15809
849,348.0,8_29_30_15825
850,536.0,8_29_30_15842
851,703.0,8_29_30_15858
852,664.0,8_29_30_15875
853,508.0,8_29_30_15892
854,292.0,8_29_30_15908
855,171.0,8_29_30_15925
856,245.0,8_29_30_15942
857,401.0,8_29_30_15958
858,627.0,8_29_30_15975
859,695.0,8_29_30_15992
860,614.0,8_29_30_16009
861,453.0,8_29_30_16025
862,224.0,8_29_30_16042
863,186.0,8_29_30_16059
864,285.0,8_29_30_16075
865,459.0,8_29_30_16092
866,670.0,8_29_30_16108
867,686.0,8_29_30_16125
868,571.0,8_29_30_16142
869,398.0,8_29_30_16159
870,189.0,8_29_30_16175
871,196.0,8_29_30_16192
872,339.0,8_29_30_16208
873,518.0,8_29_30_16225
874,699.0,8_29_30_16242
875,667.0,8_29_30_16258
876,516.0,8_29_30_16275
877,314.0,8_29_30_16292
878,173.0,8_29_30_16308
879,228.0,8_29_30_16325
880,388.0,8_29_30_16342
881,611.0,8_29_30_16358
882,700.0,8_29_30_16376
883,621.0,8_29_30_16392
884,466.0,8_29_30_16409
885,231.0,8_29_30_16425
886,184.0,8_29_30_16442
887,280.0,8_29_30_16459
888,447.0,8_29_30_16475
889,660.0,8_29_30_16492
890,687.0,8_29_30_16509
891,578.0,8_29_30_16525
892,413.0,8_29_31_16542
893,196.0,8_29_31_16559
894,194.0,8_29_31_16576
895,326.0,8_29_31_16592
896,499.0,8_29_31_16609
897,696.0,8_29_31_16625
898,670.0,8_29_31_16642
899,526.0,8_29_31_16659
900,336.0,8_29_31_16678
901,174.0,8_29_31_16692
902,219.0,8_29_31_16709
903,379.0,8_29_31_16726
904,593.0,8_29_31_16743
905,700.0,8_29_31_16758
906,628.0,8_29_31_16775
907,479.0,8_29_31_16792
908,248.0,8_29_31_16809
909,179.0,8_29_31_16826
910,269.0,8_29_31_16842
911,436.0,8_29_31_16859
912,655.0,8_29_31_16876
913,684.0,8_29_31_16892
914,586.0,8_29_31_16908
915,423.0,8_29_31_16925
916,205.0,8_29_31_16942
917,193.0,8_29_31_16959
918,315.0,8_29_31_16976
919,487.0,8_29_31_16992
920,689.0,8_29_31_17009
921,679.0,8_29_31_17025
922,535.0,8_29_31_17042
923,348.0,8_29_31_17059
924,175.0,8_29_31_17076
925,216.0,8_29_31_17092
926,370.0,8_29_31_17109
927,575.0,8_29_31_17125
928,697.0,8_29_31_17142
929,636.0,8_29_31_17159
930,490.0,8_29_31_17175
931,259.0,8_29_31_17192
932,177.0,8_29_31_17209
933,259.0,8_29_31_17225
934,423.0,8_29_31_17242
935,647.0,8_29_31_17259
936,686.0,8_29_31_17275
937,592.0,8_29_31_17292
938,428.0,8_29_31_17309
939,215.0,8_29_31_17325
940,190.0,8_29_31_17342
941,302.0,8_29_31_17359
942,473.0,8_29_31_17375
943,677.0,8_29_31_17392
944,680.0,8_29_31_17408
945,546.0,8_29_31_17425
946,371.0,8_29_31_17442
947,173.0,8_29_31_17459
948,201.0,8_29_31_17476
949,353.0,8_29_31_17492
950,552.0,8_29_31_17508
951,701.0,8_29_31_17525
952,653.0,8_29_32_17542
953,500.0,8_29_32_17559
954,277.0,8_29_32_17576
955,175.0,8_29_32_17592
956,244.0,8_29_32_17609
957,400.0,8_29_32_17625
958,629.0,8_29_32_17641
959,694.0,8_29_32_17659
960,607.0,8_29_32_17676
961,445.0,8_29_32_17692
962,218.0,8_29_32_17708
963,184.0,8_29_32_17725
964,291.0,8_29_32_17742
965,455.0,8_29_32_17758
966,662.0,8_29_32_17776
967,681.0,8_29_32_17792
968,561.0,8_29_32_17809
969,396.0,8_29_32_17826
970,183.0,8_29_32_17842
971,195.0,8_29_32_17859
972,341.0,8_29_32_17885
973,531.0,8_29_32_17902
974,701.0,8_29_32_17919
975,657.0,8_29_32_17935
976,509.0,8_29_32_17952
977,297.0,8_29_32_17969
978,174.0,8_29_32_17986
979,238.0,8_29_32_18002
980,387.0,8_29_32_18019
981,616.0,8_29_32_18035
982,692.0,8_29_32_18052
983,617.0,8_29_32_18069
984,459.0,8_29_32_18085
985,224.0,8_29_32_18102
986,184.0,8_29_32_18119
987,279.0,8_29_32_18136
988,449.0,8_29_32_18152
989,657.0,8_29_32_18168
990,683.0,8_29_32_18185
991,570.0,8_29_32_18202
992,405.0,8_29_32_18218
993,196.0,8_29_32_18235
994,192.0,8_29_32_18252
995,327.0,8_29_32_18269
996,506.0,8_29_32_18286
997,698.0,8_29_32_18302
998,666.0,8_29_32_18319
999,521.0,8_29_32_18335
1000,314.0,8_29_32_18352
1001,168.0,8_29_32_18369
1002,225.0,8_29_32_18386
1003,380.0,8_29_32_18402
1004,599.0,8_29_32_18418
1005,688.0,8_29_32_18435
1006,623.0,8_29_32_18452
1007,472.0,8_29_32_18469
1008,233.0,8_29_32_18485
1009,179.0,8_29_32_18502
1010,266.0,8_29_32_18519
1011,439.0,8_29_33_18535
1012,657.0,8_29_33_18552
1013,686.0,8_29_33_18568
1014,575.0,8_29_33_18585
1015,414.0,8_29_33_18602
1016,201.0,8_29_33_18619
1017,188.0,8_29_33_18635
1018,319.0,8_29_33_18652
1019,486.0,8_29_33_18669
1020,690.0,8_29_33_18685
1021,672.0,8_29_33_18702
1022,526.0,8_29_33_18719
1023,330.0,8_29_33_18735
1024,161.0,8_29_33_18752
1025,215.0,8_29_33_18769
1026,372.0,8_29_33_18786
1027,586.0,8_29_33_18802
1028,691.0,8_29_33_18819
1029,623.0,8_29_33_18836
1030,480.0,8_29_33_18852
1031,249.0,8_29_33_18868
1032,177.0,8_29_33_18886
1033,258.0,8_29_33_18906
1034,424.0,8_29_33_18923
1035,648.0,8_29_33_18940
1036,684.0,8_29_33_18957
1037,584.0,8_29_33_18973
1038,420.0,8_29_33_18990
1039,204.0,8_29_33_19007
1040,187.0,8_29_33_19023
1041,307.0,8_29_33_19040
1042,475.0,8_29_33_19057
1043,679.0,8_29_33_19073
1044,673.0,8_29_33_19090
1045,533.0,8_29_33_19106
1046,352.0,8_29_33_19123
1047,165.0,8_29_33_19140
1048,204.0,8_29_33_19156
1049,360.0,8_29_33_19173
1050,570.0,8_29_33_19190
1051,697.0,8_29_33_19206
1052,632.0,8_29_33_19223
1053,485.0,8_29_33_19240
1054,258.0,8_29_33_19257
1055,179.0,8_29_33_19273
1056,249.0,8_29_33_19290
1057,405.0,8_29_33_19306
1058,640.0,8_29_33_19323
1059,686.0,8_29_33_19340
1060,596.0,8_29_33_19356
1061,427.0,8_29_33_19373
1062,205.0,8_29_33_19390
1063,184.0,8_29_33_19407
1064,296.0,8_29_33_19423
1065,467.0,8_29_33_19440
1066,669.0,8_29_33_19457
1067,677.0,8_29_33_19473
1068,545.0,8_29_33_19490
1069,368.0,8_29_33_19506
1070,169.0,8_29_33_19523
1071,194.0,8_29_34_19540
1072,348.0,8_29_34_19557
1073,548.0,8_29_34_19573
1074,702.0,8_29_34_19590
1075,647.0,8_29_34_19607
1076,495.0,8_29_34_19623
1077,273.0,8_29_34_19640
1078,170.0,8_29_34_19657
1079,241.0,8_29_34_19673
1080,391.0,8_29_34_19690
1081,623.0,8_29_34_19706
1082,685.0,8_29_34_19723
1083,605.0,8_29_34_19739
1084,444.0,8_29_34_19757
1085,216.0,8_29_34_19773
1086,182.0,8_29_34_19790
1087,282.0,8_29_34_19807
1088,451.0,8_29_34_19824
1089,660.0,8_29_34_19840
1090,678.0,8_29_34_19857
1091,556.0,8_29_34_19873
1092,393.0,8_29_34_19889
1093,181.0,8_29_34_19907
1094,194.0,8_29_34_19924
1095,336.0,8_29_34_19939
1096,520.0,8_29_34_19956
1097,697.0,8_29_34_19973
1098,657.0,8_29_34_19989
1099,508.0,8_29_34_20007
1100,293.0,8_29_34_20024
1101,163.0,8_29_34_20040
1102,232.0,8_29_34_20057
1103,385.0,8_29_34_20073
1104,612.0,8_29_34_20090
1105,685.0,8_29_34_20107
1106,612.0,8_29_34_20123
1107,458.0,8_29_34_20140
1108,226.0,8_29_34_20157
1109,178.0,8_29_34_20173
1110,271.0,8_29_34_20190
1111,442.0,8_29_34_20207
1112,657.0,8_29_34_20223
1113,679.0,8_29_34_20240
1114,566.0,8_29_34_20257
1115,399.0,8_29_34_20273
1116,189.0,8_29_34_20290
1117,189.0,8_29_34_20307
1118,327.0,8_29_34_20323
1119,503.0,8_29_34_20340
1120,691.0,8_29_34_20357
1121,659.0,8_29_34_20373
1122,515.0,8_29_34_20390
1123,311.0,8_29_34_20406
1124,162.0,8_29_34_20423
1125,217.0,8_29_34_20440
1126,375.0,8_29_34_20456
1127,601.0,8_29_34_20473
1128,690.0,8_29_34_20490
1129,618.0,8_29_34_20506
1130,466.0,8_29_34_20523
1131,229.0,8_29_35_20539
1132,175.0,8_29_35_20556
1133,262.0,8_29_35_20574
1134,428.0,8_29_35_20590
1135,646.0,8_29_35_20606
1136,681.0,8_29_35_20623
1137,577.0,8_29_35_20640
1138,410.0,8_29_35_20656
1139,193.0,8_29_35_20674
1140,183.0,8_29_35_20690
1141,316.0,8_29_35_20707
1142,485.0,8_29_35_20723
1143,688.0,8_29_35_20740
1144,662.0,8_29_35_20757
1145,523.0,8_29_35_20774
1146,331.0,8_29_35_20790
1147,164.0,8_29_35_20807
1148,210.0,8_29_35_20823
1149,365.0,8_29_35_20840
1150,585.0,8_29_35_20857
1151,694.0,8_29_35_20873
1152,619.0,8_29_35_20889
1153,470.0,8_29_35_20907
1154,240.0,8_29_35_20924
1155,176.0,8_29_35_20940
1156,263.0,8_29_35_20957
1157,427.0,8_29_35_20973
1158,642.0,8_29_35_20990
1159,680.0,8_29_35_21006
1160,580.0,8_29_35_21023
1161,416.0,8_29_35_21040
1162,199.0,8_29_35_21057
1163,184.0,8_29_35_21073
1164,310.0,8_29_35_21090
1165,482.0,8_29_35_21107
1166,687.0,8_29_35_21123
1167,666.0,8_29_35_21140
1168,524.0,8_29_35_21157
1169,339.0,8_29_35_21174
1170,166.0,8_29_35_21190
1171,209.0,8_29_35_21207
1172,365.0,8_29_35_21224
1173,575.0,8_29_35_21240
1174,693.0,8_29_35_21256
1175,623.0,8_29_35_21274
1176,476.0,8_29_35_21290
1177,246.0,8_29_35_21306
1178,172.0,8_29_35_21323
1179,258.0,8_29_35_21340
1180,423.0,8_29_35_21357
1181,641.0,8_29_35_21373
1182,678.0,8_29_35_21390
1183,582.0,8_29_35_21406
1184,418.0,8_29_35_21424
1185,203.0,8_29_35_21440
1186,183.0,8_29_35_21457
1187,298.0,8_29_35_21473
1188,473.0,8_29_35_21490
1189,676.0,8_29_35_21506
1190,673.0,8_29_35_21524
1191,533.0,8_29_36_21540
1192,352.0,8_29_36_21557
1193,168.0,8_29_36_21574
1194,201.0,8_29_36_21590
1195,354.0,8_29_36_21607
1196,557.0,8_29_36_21624
1197,689.0,8_29_36_21640
1198,638.0,8_29_36_21657
1199,487.0,8_29_36_21673
1200,259.0,8_29_36_21690
1201,168.0,8_29_36_21707
1202,245.0,8_29_36_21724
1203,408.0,8_29_36_21740
1204,634.0,8_29_36_21757
1205,681.0,8_29_36_21773
1206,588.0,8_29_36_21790
1207,425.0,8_29_36_21807
1208,207.0,8_29_36_21823
1209,178.0,8_29_36_21839
1210,292.0,8_29_36_21857
1211,460.0,8_29_36_21874
1212,665.0,8_29_36_21890
1213,670.0,8_29_36_21907
1214,541.0,8_29_36_21923
1215,375.0,8_29_36_21940
1216,168.0,8_29_36_21957
1217,193.0,8_29_36_21973
1218,345.0,8_29_36_21990
1219,539.0,8_29_36_22007
1220,691.0,8_29_36_22023
1221,644.0,8_29_36_22039
1222,489.0,8_29_36_22056
1223,272.0,8_29_36_22073
1224,167.0,8_29_36_22089
1225,239.0,8_29_36_22106
1226,394.0,8_29_36_22123
1227,620.0,8_29_36_22140
1228,684.0,8_29_36_22157
1229,596.0,8_29_36_22173
1230,435.0,8_29_36_22190
1231,210.0,8_29_36_22207
1232,179.0,8_29_36_22224
1233,285.0,8_29_36_22240
1234,452.0,8_29_36_22257
1235,658.0,8_29_36_22274
1236,672.0,8_29_36_22290
1237,553.0,8_29_36_22307
1238,386.0,8_29_36_22323
1239,178.0,8_29_36_22340
1240,186.0,8_29_36_22357
1241,333.0,8_29_36_22373
1242,519.0,8_29_36_22390
1243,694.0,8_29_36_22407
1244,649.0,8_29_36_22423
1245,502.0,8_29_36_22440
1246,290.0,8_29_36_22456
1247,166.0,8_29_36_22474
1248,229.0,8_29_36_22490
1249,382.0,8_29_36_22507
1250,609.0,8_29_36_22524
1251,685.0,8_29_37_22540
1252,608.0,8_29_37_22557
1253,448.0,8_29_37_22574
1254,217.0,8_29_37_22590
1255,176.0,8_29_37_22606
1256,274.0,8_29_37_22623
1257,448.0,8_29_37_22640
1258,656.0,8_29_37_22657
1259,674.0,8_29_37_22673
1260,560.0,8_29_37_22690
1261,395.0,8_29_37_22706
1262,189.0,8_29_37_22723
1263,188.0,8_29_37_22740
1264,323.0,8_29_37_22757
1265,498.0,8_29_37_22773
1266,690.0,8_29_37_22790
1267,663.0,8_29_37_22806
1268,509.0,8_29_37_22824
1269,307.0,8_29_37_22840
1270,161.0,8_29_37_22857
1271,215.0,8_29_37_22873
1272,378.0,8_29_37_22890
1273,595.0,8_29_37_22906
1274,683.0,8_29_37_22923
1275,614.0,8_29_37_22940
1276,464.0,8_29_37_22956
1277,227.0,8_29_37_22974
1278,170.0,8_29_37_22990
1279,262.0,8_29_37_23007
1280,433.0,8_29_37_23024
1281,651.0,8_29_37_23040
1282,676.0,8_29_37_23057
1283,569.0,8_29_37_23073
1284,404.0,8_29_37_23090
1285,191.0,8_29_37_23106
1286,182.0,8_29_37_23124
1287,311.0,8_29_37_23140
1288,481.0,8_29_37_23157
1289,679.0,8_29_37_23173
1290,667.0,8_29_37_23190
1291,518.0,8_29_37_23207
1292,325.0,8_29_37_23224
1293,157.0,8_29_37_23240
1294,207.0,8_29_37_23256
1295,365.0,8_29_37_23273
1296,578.0,8_29_37_23289
1297,688.0,8_29_37_23307
1298,616.0,8_29_37_23324
1299,472.0,8_29_37_23340
1300,238.0,8_29_37_23357
1301,171.0,8_29_37_23373
1302,252.0,8_29_37_23390
1303,417.0,8_29_37_23407
1304,639.0,8_29_37_23423
1305,676.0,8_29_37_23440
1306,578.0,8_29_37_23457
1307,411.0,8_29_37_23474
1308,192.0,8_29_37_23490
1309,181.0,8_29_37_23507
1310,301.0,8_29_37_23523
1311,472.0,8_29_38_23540
1312,670.0,8_29_38_23557
1313,665.0,8_29_38_23573
1314,529.0,8_29_38_23590
1315,349.0,8_29_38_23607
1316,161.0,8_29_38_23624
1317,194.0,8_29_38_23640
1318,353.0,8_29_38_23656
1319,561.0,8_29_38_23674
1320,692.0,8_29_38_23690
1321,632.0,8_29_38_23707
1322,478.0,8_29_38_23723
1323,249.0,8_29_38_23740
1324,170.0,8_29_38_23757
1325,245.0,8_29_38_23773
1326,403.0,8_29_38_23790
1327,633.0,8_29_38_23806
1328,678.0,8_29_38_23824
1329,589.0,8_29_38_23840
1330,424.0,8_29_38_23856
1331,199.0,8_29_38_23873
1332,176.0,8_29_38_23890
1333,288.0,8_29_38_23907
1334,457.0,8_29_38_23923
1335,662.0,8_29_38_23940
1336,673.0,8_29_38_23957
1337,543.0,8_29_38_23973
1338,377.0,8_29_38_23990
1339,171.0,8_29_38_24006
1340,187.0,8_29_38_24024
1341,336.0,8_29_38_24040
1342,526.0,8_29_38_24057
1343,695.0,8_29_38_24073
1344,650.0,8_29_38_24091
1345,496.0,8_29_38_24107
1346,276.0,8_29_38_24123
1347,160.0,8_29_38_24140
1348,234.0,8_29_38_24158
1349,385.0,8_29_38_24173
1350,612.0,8_29_38_24190
1351,679.0,8_29_38_24207
1352,603.0,8_29_38_24224
1353,446.0,8_29_38_24240
1354,216.0,8_29_38_24257
1355,172.0,8_29_38_24274
1356,272.0,8_29_38_24290
1357,444.0,8_29_38_24307
1358,656.0,8_29_38_24324
1359,674.0,8_29_38_24340
1360,556.0,8_29_38_24357
1361,388.0,8_29_38_24373
1362,179.0,8_29_38_24390
1363,186.0,8_29_38_24407
1364,325.0,8_29_38_24423
1365,504.0,8_29_38_24440
1366,689.0,8_29_38_24456
1367,654.0,8_29_38_24474
1368,504.0,8_29_38_24490
1369,292.0,8_29_38_24507
1370,154.0,8_29_38_24523
1371,221.0,8_29_39_24540
1372,376.0,8_29_39_24556
1373,599.0,8_29_39_24573
1374,680.0,8_29_39_24590
1375,607.0,8_29_39_24607
1376,457.0,8_29_39_24624
1377,219.0,8_29_39_24640
1378,170.0,8_29_39_24657
1379,259.0,8_29_39_24673
1380,431.0,8_29_39_24690
1381,649.0,8_29_39_24707
1382,673.0,8_29_39_24723
1383,567.0,8_29_39_24740
1384,398.0,8_29_39_24757
1385,185.0,8_29_39_24773
1386,180.0,8_29_39_24790
1387,311.0,8_29_39_24807
1388,482.0,8_29_39_24823
1389,682.0,8_29_39_24840
1390,661.0,8_29_39_24857
1391,518.0,8_29_39_24874
1392,320.0,8_29_39_24890
1393,152.0,8_29_39_24907
1394,202.0,8_29_39_24923
1395,362.0,8_29_39_24940
1396,583.0,8_29_39_24957
1397,689.0,8_29_39_24973
1398,615.0,8_29_39_24990
1399,467.0,8_29_39_25007
1400,234.0,8_29_39_25023
1401,169.0,8_29_39_25041
1402,253.0,8_29_39_25057
1403,415.0,8_29_39_25073
1404,637.0,8_29_39_25091
1405,679.0,8_29_39_25107
1406,580.0,8_29_39_25123
1407,414.0,8_29_39_25140
1408,194.0,8_29_39_25157
1409,175.0,8_29_39_25173
1410,298.0,8_29_39_25190
1411,471.0,8_29_39_25207
1412,678.0,8_29_39_25223
1413,662.0,8_29_39_25240
1414,527.0,8_29_39_25257
1415,342.0,8_29_39_25273
1416,157.0,8_29_39_25291
1417,197.0,8_29_39_25307
1418,351.0,8_29_39_25324
1419,561.0,8_29_39_25340
1420,693.0,8_29_39_25357
1421,627.0,8_29_39_25373
1422,480.0,8_29_39_25391
1423,250.0,8_29_39_25407
1424,162.0,8_29_39_25424
1425,243.0,8_29_39_25440
1426,402.0,8_29_39_25457
1427,633.0,8_29_39_25473
1428,679.0,8_29_39_25490
1429,588.0,8_29_39_25507
1430,426.0,8_29_39_25524
1431,202.0,8_29_40_25540
1432,174.0,8_29_40_25557
1433,284.0,8_29_40_25573
1434,457.0,8_29_40_25590
1435,669.0,8_29_40_25607
1436,671.0,8_29_40_25623
1437,537.0,8_29_40_25641
1438,362.0,8_29_40_25657
1439,160.0,8_29_40_25673
1440,193.0,8_29_40_25690
1441,341.0,8_29_40_25707
1442,541.0,8_29_40_25723
1443,691.0,8_29_40_25740
1444,640.0,8_29_40_25756
1445,493.0,8_29_40_25773
1446,262.0,8_29_40_25790
1447,159.0,8_29_40_25807
1448,234.0,8_29_40_25824
1449,393.0,8_29_40_25840
1450,624.0,8_29_40_25857
1451,677.0,8_29_40_25874
1452,595.0,8_29_40_25890
1453,432.0,8_29_40_25907
1454,208.0,8_29_40_25923
1455,173.0,8_29_40_25940
1456,276.0,8_29_40_25957
1457,448.0,8_29_40_25973
1458,659.0,8_29_40_25990
1459,671.0,8_29_40_26006
1460,544.0,8_29_40_26023
1461,376.0,8_29_40_26040
1462,164.0,8_29_40_26057
1463,186.0,8_29_40_26074
1464,336.0,8_29_40_26090
1465,526.0,8_29_40_26107
1466,687.0,8_29_40_26124
1467,644.0,8_29_40_26140
1468,493.0,8_29_40_26157
1469,278.0,8_29_40_26173
1470,159.0,8_29_40_26191
1471,230.0,8_29_40_26207
1472,385.0,8_29_40_26224
1473,614.0,8_29_40_26240
1474,682.0,8_29_40_26257
1475,597.0,8_29_40_26273
1476,437.0,8_29_40_26290
1477,210.0,8_29_40_26307
1478,171.0,8_29_40_26324
1479,274.0,8_29_40_26340
1480,441.0,8_29_40_26357
1481,651.0,8_29_40_26373
1482,672.0,8_29_40_26390
1483,552.0,8_29_40_26407
1484,387.0,8_29_40_26423
1485,173.0,8_29_40_26440
1486,178.0,8_29_40_26457
1487,326.0,8_29_40_26473
1488,510.0,8_29_40_26490
1489,689.0,8_29_40_26507
1490,648.0,8_29_40_26523
1491,501.0,8_29_41_26540
1492,294.0,8_29_41_26557
1493,168.0,8_29_41_26573
1494,218.0,8_29_41_26590
1495,371.0,8_29_41_26606
1496,600.0,8_29_41_26623
1497,685.0,8_29_41_26640
1498,606.0,8_29_41_26657
1499,452.0,8_29_41_26674
1500,215.0,8_29_41_26690
1501,172.0,8_29_41_26707
1502,265.0,8_29_41_26723
1503,433.0,8_29_41_26740
1504,646.0,8_29_41_26756
1505,672.0,8_29_41_26773
1506,564.0,8_29_41_26790
1507,399.0,8_29_41_26807
1508,185.0,8_29_41_26824
1509,178.0,8_29_41_26840
1510,313.0,8_29_41_26857
1511,486.0,8_29_41_26874
1512,689.0,8_29_41_26890
1513,657.0,8_29_41_26907
1514,512.0,8_29_41_26924
1515,312.0,8_29_41_26940
1516,157.0,8_29_41_26957
1517,207.0,8_29_41_26973
1518,366.0,8_29_41_26990
1519,587.0,8_29_41_27007
1520,684.0,8_29_41_27023
1521,613.0,8_29_41_27040
1522,461.0,8_29_41_27057
1523,225.0,8_29_41_27073
1524,163.0,8_29_41_27090
1525,259.0,8_29_41_27107
1526,427.0,8_29_41_27123
1527,643.0,8_29_41_27140
1528,671.0,8_29_41_27157
1529,567.0,8_29_41_27174
1530,404.0,8_29_41_27190
1531,192.0,8_29_41_27207
1532,179.0,8_29_41_27223
1533,303.0,8_29_41_27241
1534,477.0,8_29_41_27257
1535,678.0,8_29_41_27273
1536,665.0,8_29_41_27290
1537,515.0,8_29_41_27307
1538,326.0,8_29_41_27323
1539,155.0,8_29_41_27340
1540,202.0,8_29_41_27357
1541,360.0,8_29_41_27373
1542,569.0,8_29_41_27390
1543,683.0,8_29_41_27407
1544,616.0,8_29_41_27423
1545,471.0,8_29_41_27440
1546,239.0,8_29_41_27457
1547,164.0,8_29_41_27473
1548,246.0,8_29_41_27491
1549,414.0,8_29_41_27507
1550,634.0,8_29_41_27523
1551,673.0,8_29_42_27540
1552,574.0,8_29_42_27557
1553,408.0,8_29_42_27574
1554,191.0,8_29_42_27590
1555,177.0,8_29_42_27607
1556,296.0,8_29_42_27623
1557,465.0,8_29_42_27641
1558,665.0,8_29_42_27657
1559,662.0,8_29_42_27673
1560,527.0,8_29_42_27690
1561,348.0,8_29_42_27707
1562,156.0,8_29_42_27724
1563,191.0,8_29_42_27740
1564,347.0,8_29_42_27757
1565,554.0,8_29_42_27774
1566,687.0,8_29_42_27790
1567,629.0,8_29_42_27807
1568,477.0,8_29_42_27823
1569,252.0,8_29_42_27840
1570,167.0,8_29_42_27857
1571,240.0,8_29_42_27874
1572,397.0,8_29_42_27894
1573,629.0,8_29_42_27911
1574,674.0,8_29_42_27927
1575,587.0,8_29_42_27945
1576,420.0,8_29_42_27960
1577,194.0,8_29_42_27978
1578,173.0,8_29_42_27994
1579,286.0,8_29_42_28010
1580,456.0,8_29_42_28028
1581,659.0,8_29_42_28044
1582,666.0,8_29_42_28061
1583,538.0,8_29_42_28078
1584,371.0,8_29_42_28094
1585,165.0,8_29_42_28111
1586,183.0,8_29_42_28128
1587,338.0,8_29_42_28144
1588,533.0,8_29_42_28160
1589,690.0,8_29_42_28178
1590,641.0,8_29_42_28194
1591,485.0,8_29_42_28211
1592,270.0,8_29_42_28228
1593,161.0,8_29_42_28244
1594,236.0,8_29_42_28261
1595,387.0,8_29_42_28278
1596,614.0,8_29_42_28295
1597,679.0,8_29_42_28311
1598,596.0,8_29_42_28328
1599,434.0,8_29_42_28344
1600,207.0,8_29_42_28361
1601,171.0,8_29_42_28378
1602,276.0,8_29_42_28394
1603,448.0,8_29_42_28411
1604,656.0,8_29_42_28427
1605,668.0,8_29_42_28445
1606,547.0,8_29_42_28461
1607,382.0,8_29_42_28477
1608,178.0,8_29_42_28494
1609,183.0,8_29_42_28511
1610,328.0,8_29_43_28528
1611,509.0,8_29_43_28544
1612,689.0,8_29_43_28561
1613,652.0,8_29_43_28577
1614,496.0,8_29_43_28594
1615,286.0,8_29_43_28610
1616,155.0,8_29_43_28628
1617,223.0,8_29_43_28644
1618,379.0,8_29_43_28661
1619,601.0,8_29_43_28677
1620,677.0,8_29_43_28694
1621,602.0,8_29_43_28711
1622,454.0,8_29_43_28728
1623,215.0,8_29_43_28744
1624,165.0,8_29_43_28760
1625,261.0,8_29_43_28778
1626,432.0,8_29_43_28794
1627,650.0,8_29_43_28811
1628,672.0,8_29_43_28828
1629,561.0,8_29_43_28844
1630,397.0,8_29_43_28861
1631,185.0,8_29_43_28877
1632,178.0,8_29_43_28894
1633,309.0,8_29_43_28911
1634,478.0,8_29_43_28928
1635,679.0,8_29_43_28944
1636,660.0,8_29_43_28961
1637,514.0,8_29_43_28977
1638,315.0,8_29_43_28994
1639,151.0,8_29_43_29011
1640,201.0,8_29_43_29027
1641,360.0,8_29_43_29044
1642,577.0,8_29_43_29061
1643,683.0,8_29_43_29077
1644,612.0,8_29_43_29095
1645,466.0,8_29_43_29111
1646,233.0,8_29_43_29128
1647,167.0,8_29_43_29144
1648,248.0,8_29_43_29161
1649,413.0,8_29_43_29178
1650,633.0,8_29_43_29194
