position,GSR_Reading,Time_Stamp
0,9.0,9_44_55_574
1,740.0,9_44_55_590
2,4866.0,9_44_55_607
3,867.0,9_44_55_623
4,868.0,9_44_55_640
5,869.0,9_44_55_656
6,870.0,9_44_55_673
7,871.0,9_44_55_689
8,872.0,9_44_55_706
9,873.0,9_44_55_723
10,874.0,9_44_55_740
11,NaN,9_44_56_759
12,851.0,9_44_56_773
13,852.0,9_44_56_790
14,853.0,9_44_56_806
15,854.0,9_44_56_824
16,855.0,9_44_56_839
17,856.0,9_44_56_857
18,857.0,9_44_56_873
19,858.0,9_44_56_890
20,859.0,9_44_56_906
21,860.0,9_44_56_923
22,861.0,9_44_56_940
23,862.0,9_44_56_956
24,863.0,9_44_56_974
25,864.0,9_44_56_990
26,865.0,9_44_56_1007
27,866.0,9_44_56_1023
28,867.0,9_44_56_1039
29,868.0,9_44_56_1056
30,869.0,9_44_56_1073
31,870.0,9_44_56_1090
32,871.0,9_44_56_1106
33,872.0,9_44_56_1123
34,873.0,9_44_56_1140
35,874.0,9_44_56_1156
36,NaN,9_44_57_1907
37,1.0,9_44_57_1923
38,2.0,9_44_57_1940
39,3.0,9_44_57_1957
40,4.0,9_44_57_1974
41,5.0,9_44_57_1990
42,6.0,9_44_57_2007
43,7.0,9_44_57_2023
44,8.0,9_44_57_2039
45,9.0,9_44_57_2056
46,10.0,9_44_57_2073
47,11.0,9_44_57_2090
48,12.0,9_44_57_2107
49,13.0,9_44_57_2123
50,14.0,9_44_57_2140
51,15.0,9_44_57_2157
52,16.0,9_44_57_2173
53,17.0,9_44_57_2189
54,18.0,9_44_57_2207
55,19.0,9_44_57_2223
56,20.0,9_44_57_2240
57,21.0,9_44_57_2257
58,22.0,9_44_57_2273
59,23.0,9_44_57_2289
60,24.0,9_44_57_2306
61,25.0,9_44_57_2323
62,26.0,9_44_57_2340
63,27.0,9_44_57_2356
64,28.0,9_44_57_2373
65,29.0,9_44_57_2390
66,30.0,9_44_57_2407
67,31.0,9_44_57_2423
68,32.0,9_44_57_2440
69,33.0,9_44_57_2456
70,34.0,9_44_57_2473
71,35.0,9_44_57_2490
72,36.0,9_44_57_2507
73,37.0,9_44_57_2523
74,38.0,9_44_57_2539
75,39.0,9_44_57_2557
76,40.0,9_44_57_2573
77,41.0,9_44_57_2590
78,42.0,9_44_57_2607
79,43.0,9_44_57_2623
80,44.0,9_44_57_2640
81,45.0,9_44_57_2657
82,46.0,9_44_57_2673
83,47.0,9_44_57_2690
84,48.0,9_44_57_2707
85,49.0,9_44_57_2724
86,50.0,9_44_57_2740
87,51.0,9_44_58_2757
88,52.0,9_44_58_2773
89,53.0,9_44_58_2790
90,54.0,9_44_58_2807
91,55.0,9_44_58_2823
92,56.0,9_44_58_2840
93,57.0,9_44_58_2857
94,58.0,9_44_58_2873
95,59.0,9_44_58_2890
96,60.0,9_44_58_2907
97,61.0,9_44_58_2923
98,62.0,9_44_58_2940
99,63.0,9_44_58_2957
100,64.0,9_44_58_2973
101,65.0,9_44_58_2990
102,66.0,9_44_58_3006
103,67.0,9_44_58_3023
104,68.0,9_44_58_3040
105,69.0,9_44_58_3057
106,70.0,9_44_58_3074
107,71.0,9_44_58_3089
108,72.0,9_44_58_3107
109,73.0,9_44_58_3124
110,74.0,9_44_58_3140
111,75.0,9_44_58_3156
112,76.0,9_44_58_3173
113,77.0,9_44_58_3190
114,78.0,9_44_58_3206
115,79.0,9_44_58_3223
116,80.0,9_44_58_3239
117,81.0,9_44_58_3257
118,82.0,9_44_58_3273
119,83.0,9_44_58_3289
120,84.0,9_44_58_3306
121,85.0,9_44_58_3323
122,86.0,9_44_58_3340
123,87.0,9_44_58_3356
124,88.0,9_44_58_3373
125,89.0,9_44_58_3390
126,90.0,9_44_58_3407
127,91.0,9_44_58_3423
128,92.0,9_44_58_3439
129,93.0,9_44_58_3456
130,94.0,9_44_58_3474
131,95.0,9_44_58_3490
132,96.0,9_44_58_3507
133,97.0,9_44_58_3523
134,98.0,9_44_58_3539
135,99.0,9_44_58_3556
136,100.0,9_44_58_3573
137,101.0,9_44_58_3590
138,102.0,9_44_58_3606
139,103.0,9_44_58_3623
140,104.0,9_44_58_3639
141,105.0,9_44_58_3657
142,106.0,9_44_58_3674
143,107.0,9_44_58_3690
144,108.0,9_44_58_3707
145,109.0,9_44_58_3723
146,110.0,9_44_58_3740
147,111.0,9_44_59_3757
148,112.0,9_44_59_3773
149,113.0,9_44_59_3789
150,114.0,9_44_59_3807
151,115.0,9_44_59_3824
152,116.0,9_44_59_3839
153,117.0,9_44_59_3856
154,118.0,9_44_59_3873
155,119.0,9_44_59_3890
156,120.0,9_44_59_3906
157,121.0,9_44_59_3923
158,122.0,9_44_59_3940
159,123.0,9_44_59_3956
160,124.0,9_44_59_3973
161,125.0,9_44_59_3990
162,126.0,9_44_59_4007
163,127.0,9_44_59_4024
164,128.0,9_44_59_4039
165,129.0,9_44_59_4057
166,130.0,9_44_59_4073
167,131.0,9_44_59_4090
168,132.0,9_44_59_4107
169,133.0,9_44_59_4123
170,134.0,9_44_59_4139
171,135.0,9_44_59_4156
172,136.0,9_44_59_4173
173,137.0,9_44_59_4190
174,138.0,9_44_59_4206
175,139.0,9_44_59_4223
176,140.0,9_44_59_4240
177,141.0,9_44_59_4256
178,142.0,9_44_59_4273
179,143.0,9_44_59_4290
180,144.0,9_44_59_4307
181,145.0,9_44_59_4323
182,146.0,9_44_59_4340
183,147.0,9_44_59_4357
184,148.0,9_44_59_4373
185,149.0,9_44_59_4389
186,150.0,9_44_59_4406
187,151.0,9_44_59_4423
188,152.0,9_44_59_4440
189,153.0,9_44_59_4456
190,154.0,9_44_59_4473
191,155.0,9_44_59_4490
192,156.0,9_44_59_4506
193,157.0,9_44_59_4523
194,158.0,9_44_59_4540
195,159.0,9_44_59_4556
196,160.0,9_44_59_4573
197,161.0,9_44_59_4590
198,162.0,9_44_59_4606
199,163.0,9_44_59_4622
200,164.0,9_44_59_4639
201,165.0,9_44_59_4656
202,166.0,9_44_59_4673
203,167.0,9_44_59_4690
204,168.0,9_44_59_4706
205,169.0,9_44_59_4723
206,170.0,9_44_59_4740
207,171.0,9_45_0_4756
208,172.0,9_45_0_4773
209,173.0,9_45_0_4790
210,174.0,9_45_0_4806
211,175.0,9_45_0_4823
212,176.0,9_45_0_4840
213,177.0,9_45_0_4857
214,178.0,9_45_0_4873
215,179.0,9_45_0_4890
216,180.0,9_45_0_4906
217,181.0,9_45_0_4923
218,182.0,9_45_0_4939
219,183.0,9_45_0_4956
220,184.0,9_45_0_4973
221,185.0,9_45_0_4989
222,186.0,9_45_0_5099
223,187.0,9_45_0_5154
224,188.0,9_45_0_5193
225,189.0,9_45_0_5210
226,190.0,9_45_0_5226
227,191.0,9_45_0_5243
228,192.0,9_45_0_5260
229,193.0,9_45_0_5277
230,194.0,9_45_0_5294
231,195.0,9_45_0_5309
232,196.0,9_45_0_5326
233,197.0,9_45_0_5343
234,198.0,9_45_0_5359
235,199.0,9_45_0_5377
236,200.0,9_45_0_5393
237,201.0,9_45_0_5410
238,202.0,9_45_0_5427
239,203.0,9_45_0_5443
240,204.0,9_45_0_5460
241,205.0,9_45_0_5476
242,206.0,9_45_0_5493
243,207.0,9_45_0_5510
244,208.0,9_45_0_5527
245,209.0,9_45_0_5543
246,210.0,9_45_0_5560
247,211.0,9_45_0_5577
248,212.0,9_45_0_5593
249,213.0,9_45_0_5610
250,214.0,9_45_0_5626
251,215.0,9_45_0_5643
252,216.0,9_45_0_5660
253,217.0,9_45_0_5676
254,218.0,9_45_0_5693
255,219.0,9_45_0_5709
256,220.0,9_45_0_5727
257,221.0,9_45_0_5744
258,222.0,9_45_1_5760
259,223.0,9_45_1_5777
260,224.0,9_45_1_5794
261,225.0,9_45_1_5809
262,226.0,9_45_1_5826
263,227.0,9_45_1_5843
264,228.0,9_45_1_5860
265,229.0,9_45_1_5877
266,230.0,9_45_1_5893
267,231.0,9_45_1_5910
268,232.0,9_45_1_5927
269,233.0,9_45_1_5943
270,234.0,9_45_1_5959
271,235.0,9_45_1_5976
272,236.0,9_45_1_5993
273,237.0,9_45_1_6010
274,238.0,9_45_1_6026
275,239.0,9_45_1_6043
276,240.0,9_45_1_6060
277,241.0,9_45_1_6076
278,242.0,9_45_1_6093
279,243.0,9_45_1_6110
280,244.0,9_45_1_6126
281,245.0,9_45_1_6143
282,246.0,9_45_1_6160
283,247.0,9_45_1_6176
284,248.0,9_45_1_6193
285,249.0,9_45_1_6210
286,250.0,9_45_1_6227
287,251.0,9_45_1_6243
288,252.0,9_45_1_6260
289,253.0,9_45_1_6276
290,254.0,9_45_1_6293
291,255.0,9_45_1_6310
292,256.0,9_45_1_6327
293,257.0,9_45_1_6343
294,258.0,9_45_1_6360
295,259.0,9_45_1_6377
296,260.0,9_45_1_6393
297,261.0,9_45_1_6410
298,262.0,9_45_1_6427
299,263.0,9_45_1_6443
300,264.0,9_45_1_6460
301,265.0,9_45_1_6477
302,266.0,9_45_1_6493
303,267.0,9_45_1_6510
304,268.0,9_45_1_6527
305,269.0,9_45_1_6544
306,270.0,9_45_1_6559
307,271.0,9_45_1_6576
308,272.0,9_45_1_6593
309,273.0,9_45_1_6610
310,274.0,9_45_1_6626
311,275.0,9_45_1_6643
312,276.0,9_45_1_6660
313,277.0,9_45_1_6677
314,278.0,9_45_1_6694
315,279.0,9_45_1_6710
316,280.0,9_45_1_6726
317,281.0,9_45_1_6743
318,282.0,9_45_2_6760
319,283.0,9_45_2_6776
320,284.0,9_45_2_6793
321,285.0,9_45_2_6810
322,286.0,9_45_2_6826
323,287.0,9_45_2_6843
324,288.0,9_45_2_6860
325,289.0,9_45_2_6877
326,290.0,9_45_2_6893
327,291.0,9_45_2_6910
328,292.0,9_45_2_6927
329,293.0,9_45_2_6943
330,294.0,9_45_2_6960
331,295.0,9_45_2_6977
332,296.0,9_45_2_6994
333,297.0,9_45_2_7010
334,298.0,9_45_2_7027
335,299.0,9_45_2_7043
336,300.0,9_45_2_7060
337,301.0,9_45_2_7076
338,302.0,9_45_2_7093
339,303.0,9_45_2_7110
340,304.0,9_45_2_7126
341,305.0,9_45_2_7143
342,306.0,9_45_2_7160
343,307.0,9_45_2_7177
344,308.0,9_45_2_7193
345,309.0,9_45_2_7209
346,310.0,9_45_2_7226
347,311.0,9_45_2_7243
348,312.0,9_45_2_7260
349,313.0,9_45_2_7276
350,314.0,9_45_2_7293
351,315.0,9_45_2_7310
352,316.0,9_45_2_7327
353,317.0,9_45_2_7343
354,318.0,9_45_2_7360
355,319.0,9_45_2_7377
356,320.0,9_45_2_7393
357,321.0,9_45_2_7410
358,322.0,9_45_2_7427
359,323.0,9_45_2_7443
360,324.0,9_45_2_7460
361,325.0,9_45_2_7476
362,326.0,9_45_2_7493
363,327.0,9_45_2_7510
364,328.0,9_45_2_7526
365,329.0,9_45_2_7543
366,330.0,9_45_2_7560
367,331.0,9_45_2_7577
368,332.0,9_45_2_7593
369,333.0,9_45_2_7610
370,334.0,9_45_2_7627
371,335.0,9_45_2_7643
372,336.0,9_45_2_7660
373,337.0,9_45_2_7677
374,338.0,9_45_2_7693
375,339.0,9_45_2_7710
376,340.0,9_45_2_7727
377,341.0,9_45_2_7744
378,342.0,9_45_3_7760
379,343.0,9_45_3_7776
380,344.0,9_45_3_7793
381,345.0,9_45_3_7810
382,346.0,9_45_3_7827
383,347.0,9_45_3_7843
384,348.0,9_45_3_7860
385,349.0,9_45_3_7877
386,350.0,9_45_3_7894
387,351.0,9_45_3_7910
388,352.0,9_45_3_7926
389,353.0,9_45_3_7943
390,354.0,9_45_3_7960
391,355.0,9_45_3_7976
392,356.0,9_45_3_7993
393,357.0,9_45_3_8010
394,358.0,9_45_3_8027
395,359.0,9_45_3_8043
396,360.0,9_45_3_8060
397,361.0,9_45_3_8077
398,362.0,9_45_3_8093
399,363.0,9_45_3_8110
400,364.0,9_45_3_8127
401,365.0,9_45_3_8143
402,366.0,9_45_3_8160
403,367.0,9_45_3_8177
404,368.0,9_45_3_8194
405,369.0,9_45_3_8210
406,370.0,9_45_3_8226
407,371.0,9_45_3_8243
408,372.0,9_45_3_8260
409,373.0,9_45_3_8277
410,374.0,9_45_3_8294
411,375.0,9_45_3_8310
412,376.0,9_45_3_8327
413,377.0,9_45_3_8343
414,378.0,9_45_3_8360
415,379.0,9_45_3_8376
416,380.0,9_45_3_8393
417,381.0,9_45_3_8410
418,382.0,9_45_3_8427
419,383.0,9_45_3_8443
420,384.0,9_45_3_8460
421,385.0,9_45_3_8476
422,386.0,9_45_3_8493
423,387.0,9_45_3_8509
424,388.0,9_45_3_8527
425,389.0,9_45_3_8544
426,390.0,9_45_3_8559
427,391.0,9_45_3_8576
428,392.0,9_45_3_8593
429,393.0,9_45_3_8609
430,394.0,9_45_3_8626
431,395.0,9_45_3_8644
432,396.0,9_45_3_8660
433,397.0,9_45_3_8677
434,398.0,9_45_3_8693
435,399.0,9_45_3_8710
436,400.0,9_45_3_8726
437,401.0,9_45_3_8744
438,402.0,9_45_4_8760
439,403.0,9_45_4_8777
440,404.0,9_45_4_8793
441,405.0,9_45_4_8810
442,406.0,9_45_4_8827
443,407.0,9_45_4_8843
444,408.0,9_45_4_8860
445,409.0,9_45_4_8877
446,410.0,9_45_4_8894
447,411.0,9_45_4_8909
448,412.0,9_45_4_8926
449,413.0,9_45_4_8943
450,414.0,9_45_4_8960
451,415.0,9_45_4_8977
452,416.0,9_45_4_8993
453,417.0,9_45_4_9010
454,418.0,9_45_4_9027
455,419.0,9_45_4_9043
456,420.0,9_45_4_9060
457,421.0,9_45_4_9076
458,422.0,9_45_4_9093
459,423.0,9_45_4_9110
460,424.0,9_45_4_9127
461,425.0,9_45_4_9143
462,426.0,9_45_4_9160
463,427.0,9_45_4_9176
464,428.0,9_45_4_9194
465,429.0,9_45_4_9210
466,430.0,9_45_4_9227
467,431.0,9_45_4_9243
468,432.0,9_45_4_9260
469,433.0,9_45_4_9276
470,434.0,9_45_4_9293
471,435.0,9_45_4_9310
472,436.0,9_45_4_9327
473,437.0,9_45_4_9343
474,438.0,9_45_4_9360
475,439.0,9_45_4_9377
476,440.0,9_45_4_9393
477,441.0,9_45_4_9410
478,442.0,9_45_4_9427
479,443.0,9_45_4_9443
480,444.0,9_45_4_9460
481,445.0,9_45_4_9477
482,446.0,9_45_4_9494
483,447.0,9_45_4_9510
484,448.0,9_45_4_9527
485,449.0,9_45_4_9543
486,450.0,9_45_4_9560
487,451.0,9_45_4_9577
488,452.0,9_45_4_9593
489,453.0,9_45_4_9610
490,454.0,9_45_4_9626
491,455.0,9_45_4_9643
492,456.0,9_45_4_9660
493,457.0,9_45_4_9677
494,458.0,9_45_4_9694
495,459.0,9_45_4_9710
496,460.0,9_45_4_9727
497,461.0,9_45_4_9743
498,462.0,9_45_5_9760
499,463.0,9_45_5_9777
500,464.0,9_45_5_9794
501,465.0,9_45_5_9809
502,466.0,9_45_5_9826
503,467.0,9_45_5_9843
504,468.0,9_45_5_9860
505,469.0,9_45_5_9877
506,470.0,9_45_5_9893
507,471.0,9_45_5_9910
508,472.0,9_45_5_9927
509,473.0,9_45_5_9943
510,474.0,9_45_5_9960
511,475.0,9_45_5_9976
512,476.0,9_45_5_9993
513,477.0,9_45_5_10010
514,478.0,9_45_5_10050
515,479.0,9_45_5_10067
516,480.0,9_45_5_10084
517,481.0,9_45_5_10100
518,482.0,9_45_5_10118
519,483.0,9_45_5_10134
520,484.0,9_45_5_10151
521,485.0,9_45_5_10167
522,486.0,9_45_5_10184
523,487.0,9_45_5_10200
524,488.0,9_45_5_10217
525,489.0,9_45_5_10234
526,490.0,9_45_5_10251
527,491.0,9_45_5_10268
528,492.0,9_45_5_10283
529,493.0,9_45_5_10300
530,494.0,9_45_5_10317
531,495.0,9_45_5_10334
532,496.0,9_45_5_10350
533,497.0,9_45_5_10367
534,498.0,9_45_5_10384
535,499.0,9_45_5_10401
536,500.0,9_45_5_10418
537,501.0,9_45_5_10434
538,502.0,9_45_5_10450
539,503.0,9_45_5_10467
540,504.0,9_45_5_10484
541,505.0,9_45_5_10500
542,506.0,9_45_5_10517
543,507.0,9_45_5_10534
544,508.0,9_45_5_10550
545,509.0,9_45_5_10567
546,510.0,9_45_5_10584
547,511.0,9_45_5_10600
548,512.0,9_45_5_10617
549,513.0,9_45_5_10634
550,514.0,9_45_5_10650
551,515.0,9_45_5_10667
552,516.0,9_45_5_10684
553,517.0,9_45_5_10701
554,518.0,9_45_5_10717
555,519.0,9_45_5_10734
556,520.0,9_45_6_10750
557,521.0,9_45_6_10767
558,522.0,9_45_6_10784
559,523.0,9_45_6_10801
560,524.0,9_45_6_10818
561,525.0,9_45_6_10834
562,526.0,9_45_6_10851
563,527.0,9_45_6_10867
564,528.0,9_45_6_10884
565,529.0,9_45_6_10901
566,530.0,9_45_6_10917
567,531.0,9_45_6_10934
568,532.0,9_45_6_10950
569,533.0,9_45_6_10967
570,534.0,9_45_6_10984
571,535.0,9_45_6_11001
572,536.0,9_45_6_11017
573,537.0,9_45_6_11034
574,538.0,9_45_6_11050
575,539.0,9_45_6_11067
576,540.0,9_45_6_11084
577,541.0,9_45_6_11101
578,542.0,9_45_6_11117
579,543.0,9_45_6_11134
580,544.0,9_45_6_11151
581,545.0,9_45_6_11167
582,546.0,9_45_6_11184
583,547.0,9_45_6_11201
584,548.0,9_45_6_11217
585,549.0,9_45_6_11234
586,550.0,9_45_6_11251
587,551.0,9_45_6_11268
588,552.0,9_45_6_11284
589,553.0,9_45_6_11300
590,554.0,9_45_6_11317
591,555.0,9_45_6_11334
592,556.0,9_45_6_11351
593,557.0,9_45_6_11367
594,558.0,9_45_6_11383
595,559.0,9_45_6_11401
596,560.0,9_45_6_11417
597,561.0,9_45_6_11434
598,562.0,9_45_6_11450
599,563.0,9_45_6_11467
600,564.0,9_45_6_11484
601,565.0,9_45_6_11501
602,566.0,9_45_6_11517
603,567.0,9_45_6_11534
604,568.0,9_45_6_11551
605,569.0,9_45_6_11568
606,570.0,9_45_6_11584
607,571.0,9_45_6_11601
608,572.0,9_45_6_11617
609,573.0,9_45_6_11633
610,574.0,9_45_6_11650
611,575.0,9_45_6_11667
612,576.0,9_45_6_11683
613,577.0,9_45_6_11700
614,578.0,9_45_6_11718
615,579.0,9_45_6_11734
616,580.0,9_45_7_11751
617,581.0,9_45_7_11767
618,582.0,9_45_7_11784
619,583.0,9_45_7_11801
620,584.0,9_45_7_11817
621,585.0,9_45_7_11834
622,586.0,9_45_7_11850
623,587.0,9_45_7_11867
624,588.0,9_45_7_11884
625,589.0,9_45_7_11901
626,590.0,9_45_7_11918
627,591.0,9_45_7_11934
628,592.0,9_45_7_11951
629,593.0,9_45_7_11967
630,594.0,9_45_7_11984
631,595.0,9_45_7_12001
632,596.0,9_45_7_12018
633,597.0,9_45_7_12034
634,598.0,9_45_7_12050
635,599.0,9_45_7_12068
636,600.0,9_45_7_12084
637,601.0,9_45_7_12100
638,602.0,9_45_7_12118
639,603.0,9_45_7_12134
640,604.0,9_45_7_12151
641,605.0,9_45_7_12168
642,606.0,9_45_7_12184
643,607.0,9_45_7_12201
644,608.0,9_45_7_12217
645,609.0,9_45_7_12234
646,610.0,9_45_7_12251
647,611.0,9_45_7_12268
648,612.0,9_45_7_12284
649,613.0,9_45_7_12301
650,614.0,9_45_7_12317
651,615.0,9_45_7_12334
652,616.0,9_45_7_12351
653,617.0,9_45_7_12368
654,618.0,9_45_7_12384
655,619.0,9_45_7_12400
656,620.0,9_45_7_12417
657,621.0,9_45_7_12434
658,622.0,9_45_7_12450
659,623.0,9_45_7_12467
660,624.0,9_45_7_12484
661,625.0,9_45_7_12501
662,626.0,9_45_7_12517
663,627.0,9_45_7_12534
664,628.0,9_45_7_12551
665,629.0,9_45_7_12568
666,630.0,9_45_7_12584
667,631.0,9_45_7_12601
668,632.0,9_45_7_12618
669,633.0,9_45_7_12634
670,634.0,9_45_7_12651
671,635.0,9_45_7_12667
672,636.0,9_45_7_12684
673,637.0,9_45_7_12701
674,638.0,9_45_7_12717
675,639.0,9_45_7_12734
676,640.0,9_45_8_12751
677,641.0,9_45_8_12767
678,642.0,9_45_8_12784
679,643.0,9_45_8_12801
680,644.0,9_45_8_12818
681,645.0,9_45_8_12834
682,646.0,9_45_8_12851
683,647.0,9_45_8_12867
684,648.0,9_45_8_12884
685,649.0,9_45_8_12901
686,650.0,9_45_8_12917
687,651.0,9_45_8_12934
688,652.0,9_45_8_12951
689,653.0,9_45_8_12968
690,654.0,9_45_8_12984
691,655.0,9_45_8_13001
692,656.0,9_45_8_13017
693,657.0,9_45_8_13033
694,658.0,9_45_8_13051
695,659.0,9_45_8_13068
696,660.0,9_45_8_13085
697,661.0,9_45_8_13100
698,662.0,9_45_8_13118
699,663.0,9_45_8_13134
700,664.0,9_45_8_13151
701,665.0,9_45_8_13168
702,666.0,9_45_8_13183
703,667.0,9_45_8_13200
704,668.0,9_45_8_13218
705,669.0,9_45_8_13234
706,670.0,9_45_8_13251
707,671.0,9_45_8_13267
708,672.0,9_45_8_13284
709,673.0,9_45_8_13301
710,674.0,9_45_8_13317
711,675.0,9_45_8_13334
712,676.0,9_45_8_13351
713,677.0,9_45_8_13367
714,678.0,9_45_8_13384
715,679.0,9_45_8_13401
716,680.0,9_45_8_13417
717,681.0,9_45_8_13434
718,682.0,9_45_8_13451
719,683.0,9_45_8_13468
720,684.0,9_45_8_13484
721,685.0,9_45_8_13501
722,686.0,9_45_8_13517
723,687.0,9_45_8_13534
724,688.0,9_45_8_13551
725,689.0,9_45_8_13568
726,690.0,9_45_8_13584
727,691.0,9_45_8_13600
728,692.0,9_45_8_13617
729,693.0,9_45_8_13634
730,694.0,9_45_8_13651
731,695.0,9_45_8_13668
732,696.0,9_45_8_13684
733,697.0,9_45_8_13700
734,698.0,9_45_8_13717
735,699.0,9_45_8_13734
736,700.0,9_45_9_13751
737,701.0,9_45_9_13767
738,702.0,9_45_9_13784
739,703.0,9_45_9_13800
740,704.0,9_45_9_13817
741,705.0,9_45_9_13834
742,706.0,9_45_9_13851
743,707.0,9_45_9_13867
744,708.0,9_45_9_13884
745,709.0,9_45_9_13901
746,710.0,9_45_9_13917
747,711.0,9_45_9_13934
748,712.0,9_45_9_13951
749,713.0,9_45_9_13968
750,714.0,9_45_9_13984
751,715.0,9_45_9_14001
752,716.0,9_45_9_14018
753,717.0,9_45_9_14034
754,718.0,9_45_9_14050
755,719.0,9_45_9_14067
756,720.0,9_45_9_14084
757,721.0,9_45_9_14101
758,722.0,9_45_9_14117
759,723.0,9_45_9_14134
760,724.0,9_45_9_14151
761,725.0,9_45_9_14167
762,726.0,9_45_9_14184
763,727.0,9_45_9_14200
764,728.0,9_45_9_14217
765,729.0,9_45_9_14234
766,730.0,9_45_9_14251
767,731.0,9_45_9_14268
768,732.0,9_45_9_14284
769,733.0,9_45_9_14301
770,734.0,9_45_9_14317
771,735.0,9_45_9_14334
772,736.0,9_45_9_14350
773,737.0,9_45_9_14367
774,738.0,9_45_9_14384
775,739.0,9_45_9_14401
776,740.0,9_45_9_14418
777,741.0,9_45_9_14434
778,742.0,9_45_9_14451
779,743.0,9_45_9_14467
780,744.0,9_45_9_14484
781,745.0,9_45_9_14501
782,746.0,9_45_9_14518
783,747.0,9_45_9_14534
784,748.0,9_45_9_14551
785,749.0,9_45_9_14568
786,750.0,9_45_9_14584
787,751.0,9_45_9_14601
788,752.0,9_45_9_14617
789,753.0,9_45_9_14634
790,754.0,9_45_9_14650
791,755.0,9_45_9_14667
792,756.0,9_45_9_14684
793,757.0,9_45_9_14701
794,758.0,9_45_9_14717
795,759.0,9_45_9_14734
796,760.0,9_45_10_14750
797,761.0,9_45_10_14767
798,762.0,9_45_10_14784
799,763.0,9_45_10_14801
800,764.0,9_45_10_14818
801,765.0,9_45_10_14834
802,766.0,9_45_10_14851
803,767.0,9_45_10_14868
804,768.0,9_45_10_14885
805,769.0,9_45_10_14901
806,770.0,9_45_10_14917
807,771.0,9_45_10_14934
808,772.0,9_45_10_14951
809,773.0,9_45_10_14968
810,774.0,9_45_10_14984
811,775.0,9_45_10_15001
812,776.0,9_45_10_15018
813,777.0,9_45_10_15059
814,778.0,9_45_10_15076
815,779.0,9_45_10_15092
816,780.0,9_45_10_15109
817,781.0,9_45_10_15126
818,782.0,9_45_10_15141
819,783.0,9_45_10_15158
820,784.0,9_45_10_15175
821,785.0,9_45_10_15192
822,786.0,9_45_10_15209
823,787.0,9_45_10_15226
824,788.0,9_45_10_15242
825,789.0,9_45_10_15258
826,790.0,9_45_10_15275
827,791.0,9_45_10_15292
828,792.0,9_45_10_15309
829,793.0,9_45_10_15325
830,794.0,9_45_10_15342
831,795.0,9_45_10_15359
832,796.0,9_45_10_15375
833,797.0,9_45_10_15392
834,798.0,9_45_10_15409
835,799.0,9_45_10_15425
836,800.0,9_45_10_15442
837,801.0,9_45_10_15459
838,802.0,9_45_10_15476
839,803.0,9_45_10_15492
840,804.0,9_45_10_15508
841,805.0,9_45_10_15525
842,806.0,9_45_10_15542
843,807.0,9_45_10_15559
844,808.0,9_45_10_15576
845,809.0,9_45_10_15592
846,810.0,9_45_10_15609
847,811.0,9_45_10_15626
848,812.0,9_45_10_15642
849,813.0,9_45_10_15658
850,814.0,9_45_10_15675
851,815.0,9_45_10_15692
852,816.0,9_45_10_15708
853,817.0,9_45_10_15725
854,818.0,9_45_10_15742
855,819.0,9_45_11_15759
856,820.0,9_45_11_15775
857,821.0,9_45_11_15792
858,822.0,9_45_11_15809
859,823.0,9_45_11_15825
860,824.0,9_45_11_15842
861,825.0,9_45_11_15859
862,826.0,9_45_11_15875
863,827.0,9_45_11_15892
864,828.0,9_45_11_15908
865,829.0,9_45_11_15925
866,830.0,9_45_11_15942
867,831.0,9_45_11_15959
868,832.0,9_45_11_15976
869,833.0,9_45_11_15992
870,834.0,9_45_11_16008
871,835.0,9_45_11_16025
872,836.0,9_45_11_16042
873,837.0,9_45_11_16058
874,838.0,9_45_11_16075
875,839.0,9_45_11_16092
876,840.0,9_45_11_16109
877,841.0,9_45_11_16125
878,842.0,9_45_11_16142
879,843.0,9_45_11_16158
880,844.0,9_45_11_16175
881,845.0,9_45_11_16192
882,846.0,9_45_11_16208
883,847.0,9_45_11_16226
884,848.0,9_45_11_16242
885,849.0,9_45_11_16259
886,850.0,9_45_11_16276
887,851.0,9_45_11_16292
888,852.0,9_45_11_16309
889,853.0,9_45_11_16326
890,854.0,9_45_11_16342
891,855.0,9_45_11_16359
892,856.0,9_45_11_16375
893,857.0,9_45_11_16392
894,858.0,9_45_11_16409
895,859.0,9_45_11_16426
896,860.0,9_45_11_16442
897,861.0,9_45_11_16458
898,862.0,9_45_11_16476
899,863.0,9_45_11_16492
900,864.0,9_45_11_16511
901,865.0,9_45_11_16525
902,866.0,9_45_11_16542
903,867.0,9_45_11_16559
904,868.0,9_45_11_16576
905,869.0,9_45_11_16592
906,870.0,9_45_11_16609
907,871.0,9_45_11_16625
908,872.0,9_45_11_16642
909,873.0,9_45_11_16659
910,874.0,9_45_11_16675
911,875.0,9_45_11_16692
912,876.0,9_45_11_16709
913,877.0,9_45_11_16726
914,878.0,9_45_11_16742
915,879.0,9_45_12_16759
916,880.0,9_45_12_16775
917,881.0,9_45_12_16792
918,882.0,9_45_12_16809
919,883.0,9_45_12_16825
920,884.0,9_45_12_16842
921,885.0,9_45_12_16859
922,886.0,9_45_12_16876
923,887.0,9_45_12_16892
924,888.0,9_45_12_16909
925,889.0,9_45_12_16925
926,890.0,9_45_12_16943
927,891.0,9_45_12_16959
928,892.0,9_45_12_16975
929,893.0,9_45_12_16992
930,894.0,9_45_12_17009
931,895.0,9_45_12_17026
932,896.0,9_45_12_17042
933,897.0,9_45_12_17059
934,898.0,9_45_12_17075
935,899.0,9_45_12_17092
936,900.0,9_45_12_17109
937,901.0,9_45_12_17125
938,902.0,9_45_12_17143
939,903.0,9_45_12_17158
940,904.0,9_45_12_17176
941,905.0,9_45_12_17192
942,906.0,9_45_12_17208
943,907.0,9_45_12_17226
944,908.0,9_45_12_17242
945,909.0,9_45_12_17259
946,910.0,9_45_12_17275
947,911.0,9_45_12_17292
948,912.0,9_45_12_17309
949,913.0,9_45_12_17326
950,914.0,9_45_12_17342
951,915.0,9_45_12_17359
952,916.0,9_45_12_17375
953,917.0,9_45_12_17392
954,918.0,9_45_12_17409
955,919.0,9_45_12_17425
956,920.0,9_45_12_17442
957,921.0,9_45_12_17459
958,922.0,9_45_12_17475
959,923.0,9_45_12_17492
960,924.0,9_45_12_17509
961,925.0,9_45_12_17526
962,926.0,9_45_12_17543
963,927.0,9_45_12_17559
964,928.0,9_45_12_17575
965,929.0,9_45_12_17592
966,930.0,9_45_12_17609
967,931.0,9_45_12_17626
968,932.0,9_45_12_17642
969,933.0,9_45_12_17659
970,934.0,9_45_12_17676
971,935.0,9_45_12_17693
972,936.0,9_45_12_17709
973,937.0,9_45_12_17725
974,938.0,9_45_12_17742
975,939.0,9_45_13_17758
976,940.0,9_45_13_17775
977,941.0,9_45_13_17792
978,942.0,9_45_13_17809
979,943.0,9_45_13_17825
980,944.0,9_45_13_17842
981,945.0,9_45_13_17859
982,946.0,9_45_13_17875
983,947.0,9_45_13_17892
984,948.0,9_45_13_17908
985,949.0,9_45_13_17926
986,950.0,9_45_13_17942
987,951.0,9_45_13_17958
988,952.0,9_45_13_17976
989,953.0,9_45_13_17992
990,954.0,9_45_13_18009
991,955.0,9_45_13_18026
992,956.0,9_45_13_18042
993,957.0,9_45_13_18059
994,958.0,9_45_13_18075
995,959.0,9_45_13_18092
996,960.0,9_45_13_18108
997,961.0,9_45_13_18125
998,962.0,9_45_13_18142
999,963.0,9_45_13_18159
1000,964.0,9_45_13_18175
1001,965.0,9_45_13_18192
1002,966.0,9_45_13_18209
1003,967.0,9_45_13_18226
1004,968.0,9_45_13_18242
1005,969.0,9_45_13_18259
1006,970.0,9_45_13_18276
1007,971.0,9_45_13_18292
1008,972.0,9_45_13_18309
1009,973.0,9_45_13_18326
1010,974.0,9_45_13_18342
1011,975.0,9_45_13_18359
1012,976.0,9_45_13_18375
1013,977.0,9_45_13_18392
1014,978.0,9_45_13_18409
1015,979.0,9_45_13_18425
1016,980.0,9_45_13_18442
1017,981.0,9_45_13_18459
1018,982.0,9_45_13_18476
1019,983.0,9_45_13_18492
1020,984.0,9_45_13_18509
1021,985.0,9_45_13_18526
1022,986.0,9_45_13_18542
1023,987.0,9_45_13_18559
1024,988.0,9_45_13_18576
1025,989.0,9_45_13_18592
1026,990.0,9_45_13_18609
1027,991.0,9_45_13_18626
1028,992.0,9_45_13_18642
1029,993.0,9_45_13_18659
1030,994.0,9_45_13_18675
1031,995.0,9_45_13_18693
1032,996.0,9_45_13_18709
1033,997.0,9_45_13_18726
1034,998.0,9_45_13_18743
1035,999.0,9_45_14_18758
1036,1000.0,9_45_14_18775
1037,1001.0,9_45_14_18793
1038,1002.0,9_45_14_18809
1039,1003.0,9_45_14_18825
1040,1004.0,9_45_14_18842
1041,1005.0,9_45_14_18859
1042,1006.0,9_45_14_18876
1043,1007.0,9_45_14_18892
1044,1008.0,9_45_14_18909
1045,1009.0,9_45_14_18926
1046,1010.0,9_45_14_18942
1047,1011.0,9_45_14_18959
1048,1012.0,9_45_14_18976
1049,1013.0,9_45_14_18993
1050,1014.0,9_45_14_19009
1051,1015.0,9_45_14_19026
1052,1016.0,9_45_14_19042
1053,1017.0,9_45_14_19059
1054,1018.0,9_45_14_19075
1055,1019.0,9_45_14_19092
1056,1020.0,9_45_14_19109
1057,1021.0,9_45_14_19125
1058,1022.0,9_45_14_19142
1059,1023.0,9_45_14_19159
1060,0.0,9_45_14_19176
1061,1.0,9_45_14_19192
1062,2.0,9_45_14_19209
1063,3.0,9_45_14_19225
1064,4.0,9_45_14_19243
1065,5.0,9_45_14_19259
1066,6.0,9_45_14_19276
1067,7.0,9_45_14_19292
1068,8.0,9_45_14_19309
1069,9.0,9_45_14_19326
1070,10.0,9_45_14_19342
1071,11.0,9_45_14_19359
1072,12.0,9_45_14_19375
1073,13.0,9_45_14_19392
1074,14.0,9_45_14_19409
1075,15.0,9_45_14_19426
1076,16.0,9_45_14_19442
1077,17.0,9_45_14_19459
1078,18.0,9_45_14_19476
1079,19.0,9_45_14_19492
1080,20.0,9_45_14_19509
1081,21.0,9_45_14_19525
1082,22.0,9_45_14_19542
1083,23.0,9_45_14_19558
1084,24.0,9_45_14_19575
1085,25.0,9_45_14_19592
1086,26.0,9_45_14_19609
1087,27.0,9_45_14_19626
1088,28.0,9_45_14_19643
1089,29.0,9_45_14_19659
1090,30.0,9_45_14_19675
1091,31.0,9_45_14_19693
1092,32.0,9_45_14_19708
1093,33.0,9_45_14_19725
1094,34.0,9_45_14_19742
1095,35.0,9_45_15_19759
1096,36.0,9_45_15_19775
1097,37.0,9_45_15_19792
1098,38.0,9_45_15_19809
1099,39.0,9_45_15_19826
1100,40.0,9_45_15_19843
1101,41.0,9_45_15_19859
1102,42.0,9_45_15_19876
1103,43.0,9_45_15_19892
1104,44.0,9_45_15_19909
1105,45.0,9_45_15_19925
1106,46.0,9_45_15_19942
1107,47.0,9_45_15_19959
1108,48.0,9_45_15_19975
1109,49.0,9_45_15_19992
1110,50.0,9_45_15_20009
1111,51.0,9_45_15_20026
1112,52.0,9_45_15_20048
1113,53.0,9_45_15_20100
1114,54.0,9_45_15_20136
1115,55.0,9_45_15_20153
1116,56.0,9_45_15_20170
1117,57.0,9_45_15_20186
1118,58.0,9_45_15_20203
1119,59.0,9_45_15_20220
1120,60.0,9_45_15_20236
1121,61.0,9_45_15_20253
1122,62.0,9_45_15_20270
1123,63.0,9_45_15_20286
1124,64.0,9_45_15_20303
1125,65.0,9_45_15_20320
1126,66.0,9_45_15_20337
1127,67.0,9_45_15_20353
1128,68.0,9_45_15_20370
1129,69.0,9_45_15_20387
1130,70.0,9_45_15_20403
1131,71.0,9_45_15_20420
1132,72.0,9_45_15_20437
1133,73.0,9_45_15_20453
1134,74.0,9_45_15_20470
1135,75.0,9_45_15_20486
1136,76.0,9_45_15_20503
1137,77.0,9_45_15_20519
1138,78.0,9_45_15_20536
1139,79.0,9_45_15_20553
1140,80.0,9_45_15_20570
1141,81.0,9_45_15_20587
1142,82.0,9_45_15_20603
1143,83.0,9_45_15_20620
1144,84.0,9_45_15_20636
1145,85.0,9_45_15_20653
1146,86.0,9_45_15_20669
1147,87.0,9_45_15_20687
1148,88.0,9_45_15_20703
1149,89.0,9_45_15_20720
1150,90.0,9_45_15_20737
1151,91.0,9_45_16_20753
1152,92.0,9_45_16_20770
1153,93.0,9_45_16_20786
1154,94.0,9_45_16_20803
1155,95.0,9_45_16_20820
1156,96.0,9_45_16_20837
1157,97.0,9_45_16_20853
1158,98.0,9_45_16_20870
1159,99.0,9_45_16_20887
1160,100.0,9_45_16_20903
1161,101.0,9_45_16_20920
1162,102.0,9_45_16_20937
1163,103.0,9_45_16_20953
1164,104.0,9_45_16_20970
1165,105.0,9_45_16_20986
1166,106.0,9_45_16_21003
1167,107.0,9_45_16_21019
1168,108.0,9_45_16_21036
1169,109.0,9_45_16_21053
1170,110.0,9_45_16_21070
1171,111.0,9_45_16_21086
1172,112.0,9_45_16_21103
1173,113.0,9_45_16_21119
1174,114.0,9_45_16_21136
1175,115.0,9_45_16_21153
1176,116.0,9_45_16_21169
1177,117.0,9_45_16_21186
1178,118.0,9_45_16_21203
1179,119.0,9_45_16_21220
1180,120.0,9_45_16_21237
1181,121.0,9_45_16_21253
1182,122.0,9_45_16_21270
1183,123.0,9_45_16_21287
1184,124.0,9_45_16_21303
1185,125.0,9_45_16_21320
1186,126.0,9_45_16_21336
1187,127.0,9_45_16_21353
1188,128.0,9_45_16_21370
1189,129.0,9_45_16_21386
1190,130.0,9_45_16_21403
1191,131.0,9_45_16_21420
1192,132.0,9_45_16_21437
1193,133.0,9_45_16_21453
1194,134.0,9_45_16_21470
1195,135.0,9_45_16_21486
1196,136.0,9_45_16_21503
1197,137.0,9_45_16_21519
1198,138.0,9_45_16_21536
1199,139.0,9_45_16_21553
1200,140.0,9_45_16_21570
1201,141.0,9_45_16_21587
1202,142.0,9_45_16_21603
1203,143.0,9_45_16_21620
1204,144.0,9_45_16_21636
1205,145.0,9_45_16_21653
1206,146.0,9_45_16_21669
1207,147.0,9_45_16_21686
1208,148.0,9_45_16_21704
1209,149.0,9_45_16_21720
1210,150.0,9_45_16_21737
1211,151.0,9_45_17_21753
1212,152.0,9_45_17_21770
1213,153.0,9_45_17_21787
1214,154.0,9_45_17_21803
1215,155.0,9_45_17_21820
1216,156.0,9_45_17_21836
1217,157.0,9_45_17_21854
1218,158.0,9_45_17_21870
1219,159.0,9_45_17_21886
1220,160.0,9_45_17_21903
1221,161.0,9_45_17_21920
1222,162.0,9_45_17_21936
1223,163.0,9_45_17_21953
1224,164.0,9_45_17_21970
1225,165.0,9_45_17_21986
1226,166.0,9_45_17_22003
1227,167.0,9_45_17_22020
1228,168.0,9_45_17_22037
1229,169.0,9_45_17_22053
1230,170.0,9_45_17_22070
1231,171.0,9_45_17_22086
1232,172.0,9_45_17_22103
1233,173.0,9_45_17_22120
1234,174.0,9_45_17_22136
1235,175.0,9_45_17_22153
1236,176.0,9_45_17_22170
1237,177.0,9_45_17_22187
1238,178.0,9_45_17_22204
1239,179.0,9_45_17_22220
1240,180.0,9_45_17_22236
1241,181.0,9_45_17_22253
1242,182.0,9_45_17_22269
1243,183.0,9_45_17_22287
1244,184.0,9_45_17_22303
1245,185.0,9_45_17_22319
1246,186.0,9_45_17_22337
1247,187.0,9_45_17_22353
1248,188.0,9_45_17_22370
1249,189.0,9_45_17_22386
1250,190.0,9_45_17_22403
1251,191.0,9_45_17_22420
1252,192.0,9_45_17_22437
1253,193.0,9_45_17_22453
1254,194.0,9_45_17_22470
1255,195.0,9_45_17_22487
1256,196.0,9_45_17_22503
1257,197.0,9_45_17_22520
1258,198.0,9_45_17_22536
1259,199.0,9_45_17_22553
1260,200.0,9_45_17_22570
1261,201.0,9_45_17_22587
1262,202.0,9_45_17_22604
1263,203.0,9_45_17_22620
1264,204.0,9_45_17_22637
1265,205.0,9_45_17_22653
1266,206.0,9_45_17_22670
1267,207.0,9_45_17_22686
1268,208.0,9_45_17_22703
1269,209.0,9_45_17_22719
1270,210.0,9_45_17_22736
1271,211.0,9_45_18_22753
1272,212.0,9_45_18_22770
1273,213.0,9_45_18_22787
1274,214.0,9_45_18_22803
1275,215.0,9_45_18_22820
1276,216.0,9_45_18_22837
1277,217.0,9_45_18_22854
1278,218.0,9_45_18_22870
1279,219.0,9_45_18_22887
1280,220.0,9_45_18_22903
1281,221.0,9_45_18_22920
1282,222.0,9_45_18_22936
1283,223.0,9_45_18_22953
1284,224.0,9_45_18_22970
1285,225.0,9_45_18_22987
1286,226.0,9_45_18_23003
1287,227.0,9_45_18_23020
1288,228.0,9_45_18_23037
1289,229.0,9_45_18_23053
1290,230.0,9_45_18_23070
1291,231.0,9_45_18_23087
1292,232.0,9_45_18_23103
1293,233.0,9_45_18_23120
1294,234.0,9_45_18_23136
1295,235.0,9_45_18_23154
1296,236.0,9_45_18_23170
1297,237.0,9_45_18_23187
1298,238.0,9_45_18_23203
1299,239.0,9_45_18_23220
1300,240.0,9_45_18_23236
1301,241.0,9_45_18_23253
1302,242.0,9_45_18_23270
1303,243.0,9_45_18_23286
1304,244.0,9_45_18_23304
1305,245.0,9_45_18_23320
1306,246.0,9_45_18_23337
1307,247.0,9_45_18_23353
1308,248.0,9_45_18_23370
1309,249.0,9_45_18_23387
1310,250.0,9_45_18_23403
1311,251.0,9_45_18_23420
1312,252.0,9_45_18_23436
1313,253.0,9_45_18_23453
1314,254.0,9_45_18_23470
1315,255.0,9_45_18_23486
1316,256.0,9_45_18_23504
1317,257.0,9_45_18_23520
1318,258.0,9_45_18_23537
1319,259.0,9_45_18_23553
1320,260.0,9_45_18_23570
1321,261.0,9_45_18_23587
1322,262.0,9_45_18_23603
1323,263.0,9_45_18_23620
1324,264.0,9_45_18_23636
1325,265.0,9_45_18_23653
1326,266.0,9_45_18_23669
1327,267.0,9_45_18_23687
1328,268.0,9_45_18_23703
1329,269.0,9_45_18_23720
1330,270.0,9_45_18_23736
1331,271.0,9_45_19_23753
1332,272.0,9_45_19_23770
1333,273.0,9_45_19_23787
1334,274.0,9_45_19_23803
1335,275.0,9_45_19_23819
1336,276.0,9_45_19_23836
1337,277.0,9_45_19_23854
1338,278.0,9_45_19_23870
1339,279.0,9_45_19_23887
1340,280.0,9_45_19_23903
1341,281.0,9_45_19_23920
1342,282.0,9_45_19_23937
1343,283.0,9_45_19_23953
1344,284.0,9_45_19_23970
1345,285.0,9_45_19_23987
1346,286.0,9_45_19_24003
1347,287.0,9_45_19_24019
1348,288.0,9_45_19_24036
1349,289.0,9_45_19_24053
1350,290.0,9_45_19_24070
1351,291.0,9_45_19_24086
1352,292.0,9_45_19_24104
1353,293.0,9_45_19_24120
1354,294.0,9_45_19_24136
1355,295.0,9_45_19_24153
1356,296.0,9_45_19_24170
1357,297.0,9_45_19_24187
1358,298.0,9_45_19_24203
1359,299.0,9_45_19_24220
1360,300.0,9_45_19_24237
1361,301.0,9_45_19_24253
1362,302.0,9_45_19_24269
1363,303.0,9_45_19_24286
1364,304.0,9_45_19_24303
1365,305.0,9_45_19_24319
1366,306.0,9_45_19_24336
1367,307.0,9_45_19_24353
1368,308.0,9_45_19_24370
1369,309.0,9_45_19_24386
1370,310.0,9_45_19_24403
1371,311.0,9_45_19_24420
1372,312.0,9_45_19_24437
1373,313.0,9_45_19_24454
1374,314.0,9_45_19_24470
1375,315.0,9_45_19_24487
1376,316.0,9_45_19_24503
1377,317.0,9_45_19_24520
1378,318.0,9_45_19_24537
1379,319.0,9_45_19_24553
1380,320.0,9_45_19_24570
1381,321.0,9_45_19_24587
1382,322.0,9_45_19_24603
1383,323.0,9_45_19_24620
1384,324.0,9_45_19_24636
1385,325.0,9_45_19_24653
1386,326.0,9_45_19_24669
1387,327.0,9_45_19_24686
1388,328.0,9_45_19_24704
1389,329.0,9_45_19_24720
1390,330.0,9_45_19_24737
1391,331.0,9_45_20_24753
1392,332.0,9_45_20_24770
1393,333.0,9_45_20_24786
1394,334.0,9_45_20_24803
1395,335.0,9_45_20_24820
1396,336.0,9_45_20_24837
1397,337.0,9_45_20_24854
1398,338.0,9_45_20_24870
1399,339.0,9_45_20_24887
1400,340.0,9_45_20_24903
1401,341.0,9_45_20_24920
1402,342.0,9_45_20_24937
1403,343.0,9_45_20_24953
1404,344.0,9_45_20_24970
1405,345.0,9_45_20_24986
1406,346.0,9_45_20_25003
1407,347.0,9_45_20_25020
1408,348.0,9_45_20_25036
1409,349.0,9_45_20_25054
1410,350.0,9_45_20_25070
1411,351.0,9_45_20_25086
1412,352.0,9_45_20_25103
1413,353.0,9_45_20_25143
1414,354.0,9_45_20_25160
1415,355.0,9_45_20_25177
1416,356.0,9_45_20_25193
1417,357.0,9_45_20_25209
1418,358.0,9_45_20_25227
1419,359.0,9_45_20_25243
1420,360.0,9_45_20_25260
1421,361.0,9_45_20_25276
1422,362.0,9_45_20_25293
1423,363.0,9_45_20_25310
1424,364.0,9_45_20_25327
1425,365.0,9_45_20_25343
1426,366.0,9_45_20_25360
1427,367.0,9_45_20_25376
1428,368.0,9_45_20_25393
1429,369.0,9_45_20_25410
1430,370.0,9_45_20_25427
1431,371.0,9_45_20_25443
1432,372.0,9_45_20_25460
1433,373.0,9_45_20_25476
1434,374.0,9_45_20_25493
1435,375.0,9_45_20_25510
1436,376.0,9_45_20_25526
1437,377.0,9_45_20_25543
1438,378.0,9_45_20_25560
1439,379.0,9_45_20_25577
1440,380.0,9_45_20_25593
1441,381.0,9_45_20_25610
1442,382.0,9_45_20_25627
1443,383.0,9_45_20_25643
1444,384.0,9_45_20_25660
1445,385.0,9_45_20_25676
1446,386.0,9_45_20_25694
1447,387.0,9_45_20_25710
1448,388.0,9_45_20_25727
1449,389.0,9_45_20_25743
1450,390.0,9_45_21_25759
1451,391.0,9_45_21_25777
1452,392.0,9_45_21_25793
1453,393.0,9_45_21_25810
1454,394.0,9_45_21_25826
1455,395.0,9_45_21_25843
1456,396.0,9_45_21_25860
1457,397.0,9_45_21_25877
1458,398.0,9_45_21_25893
1459,399.0,9_45_21_25910
1460,400.0,9_45_21_25927
1461,401.0,9_45_21_25943
1462,402.0,9_45_21_25960
1463,403.0,9_45_21_25977
1464,404.0,9_45_21_25993
1465,405.0,9_45_21_26009
1466,406.0,9_45_21_26026
1467,407.0,9_45_21_26043
1468,408.0,9_45_21_26060
1469,409.0,9_45_21_26077
1470,410.0,9_45_21_26093
1471,411.0,9_45_21_26109
1472,412.0,9_45_21_26127
1473,413.0,9_45_21_26143
1474,414.0,9_45_21_26160
1475,415.0,9_45_21_26177
1476,416.0,9_45_21_26193
1477,417.0,9_45_21_26210
1478,418.0,9_45_21_26226
1479,419.0,9_45_21_26243
1480,420.0,9_45_21_26260
1481,421.0,9_45_21_26277
1482,422.0,9_45_21_26293
1483,423.0,9_45_21_26309
1484,424.0,9_45_21_26327
1485,425.0,9_45_21_26343
1486,426.0,9_45_21_26360
1487,427.0,9_45_21_26377
1488,428.0,9_45_21_26393
1489,429.0,9_45_21_26409
1490,430.0,9_45_21_26427
1491,431.0,9_45_21_26443
1492,432.0,9_45_21_26460
1493,433.0,9_45_21_26477
1494,434.0,9_45_21_26493
1495,435.0,9_45_21_26510
1496,436.0,9_45_21_26526
1497,437.0,9_45_21_26543
1498,438.0,9_45_21_26560
1499,439.0,9_45_21_26576
1500,440.0,9_45_21_26593
1501,441.0,9_45_21_26610
1502,442.0,9_45_21_26626
1503,443.0,9_45_21_26643
1504,444.0,9_45_21_26660
1505,445.0,9_45_21_26676
1506,446.0,9_45_21_26693
1507,447.0,9_45_21_26710
1508,448.0,9_45_21_26726
1509,449.0,9_45_21_26743
1510,450.0,9_45_22_26760
1511,451.0,9_45_22_26777
1512,452.0,9_45_22_26793
1513,453.0,9_45_22_26810
1514,454.0,9_45_22_26827
1515,455.0,9_45_22_26843
1516,456.0,9_45_22_26860
1517,457.0,9_45_22_26877
1518,458.0,9_45_22_26893
1519,459.0,9_45_22_26909
1520,460.0,9_45_22_26926
1521,461.0,9_45_22_26943
1522,462.0,9_45_22_26960
1523,463.0,9_45_22_26977
1524,464.0,9_45_22_26993
1525,465.0,9_45_22_27010
1526,466.0,9_45_22_27026
1527,467.0,9_45_22_27043
1528,468.0,9_45_22_27060
1529,469.0,9_45_22_27076
1530,470.0,9_45_22_27093
1531,471.0,9_45_22_27110
1532,472.0,9_45_22_27127
1533,473.0,9_45_22_27143
1534,474.0,9_45_22_27160
1535,475.0,9_45_22_27177
1536,476.0,9_45_22_27193
1537,477.0,9_45_22_27210
1538,478.0,9_45_22_27227
1539,479.0,9_45_22_27244
1540,480.0,9_45_22_27260
1541,481.0,9_45_22_27276
1542,482.0,9_45_22_27293
1543,483.0,9_45_22_27310
1544,484.0,9_45_22_27326
1545,485.0,9_45_22_27343
1546,486.0,9_45_22_27360
1547,487.0,9_45_22_27377
1548,488.0,9_45_22_27393
1549,489.0,9_45_22_27410
1550,490.0,9_45_22_27426
1551,491.0,9_45_22_27443
1552,492.0,9_45_22_27460
1553,493.0,9_45_22_27476
1554,494.0,9_45_22_27493
1555,495.0,9_45_22_27510
1556,496.0,9_45_22_27527
1557,497.0,9_45_22_27543
1558,498.0,9_45_22_27560
1559,499.0,9_45_22_27576
1560,500.0,9_45_22_27594
1561,501.0,9_45_22_27611
1562,502.0,9_45_22_27627
1563,503.0,9_45_22_27643
1564,504.0,9_45_22_27660
1565,505.0,9_45_22_27677
1566,506.0,9_45_22_27693
1567,507.0,9_45_22_27710
1568,508.0,9_45_22_27727
1569,509.0,9_45_22_27743
1570,510.0,9_45_23_27760
1571,511.0,9_45_23_27776
1572,512.0,9_45_23_27793
1573,513.0,9_45_23_27810
1574,514.0,9_45_23_27827
1575,515.0,9_45_23_27843
1576,516.0,9_45_23_27860
1577,517.0,9_45_23_27877
1578,518.0,9_45_23_27893
1579,519.0,9_45_23_27909
1580,520.0,9_45_23_27927
1581,521.0,9_45_23_27944
1582,522.0,9_45_23_27960
1583,523.0,9_45_23_27976
1584,524.0,9_45_23_27993
1585,525.0,9_45_23_28010
1586,526.0,9_45_23_28027
1587,527.0,9_45_23_28044
1588,528.0,9_45_23_28060
1589,529.0,9_45_23_28076
1590,530.0,9_45_23_28093
1591,531.0,9_45_23_28110
1592,532.0,9_45_23_28126
1593,533.0,9_45_23_28143
1594,534.0,9_45_23_28160
1595,535.0,9_45_23_28177
1596,536.0,9_45_23_28193
1597,537.0,9_45_23_28210
1598,538.0,9_45_23_28226
1599,539.0,9_45_23_28244
1600,540.0,9_45_23_28260
1601,541.0,9_45_23_28277
1602,542.0,9_45_23_28293
1603,543.0,9_45_23_28310
1604,544.0,9_45_23_28327
1605,545.0,9_45_23_28344
1606,546.0,9_45_23_28360
1607,547.0,9_45_23_28377
1608,548.0,9_45_23_28394
1609,549.0,9_45_23_28410
1610,550.0,9_45_23_28426
1611,551.0,9_45_23_28443
1612,552.0,9_45_23_28460
1613,553.0,9_45_23_28476
1614,554.0,9_45_23_28493
1615,555.0,9_45_23_28509
1616,556.0,9_45_23_28527
1617,557.0,9_45_23_28544
1618,558.0,9_45_23_28560
1619,559.0,9_45_23_28576
1620,560.0,9_45_23_28593
1621,561.0,9_45_23_28610
1622,562.0,9_45_23_28627
1623,563.0,9_45_23_28644
1624,564.0,9_45_23_28660
1625,565.0,9_45_23_28677
1626,566.0,9_45_23_28693
1627,567.0,9_45_23_28710
1628,568.0,9_45_23_28726
1629,569.0,9_45_23_28743
1630,570.0,9_45_24_28760
1631,571.0,9_45_24_28777
1632,572.0,9_45_24_28793
1633,573.0,9_45_24_28810
1634,574.0,9_45_24_28827
1635,575.0,9_45_24_28844
1636,576.0,9_45_24_28860
1637,577.0,9_45_24_28876
1638,578.0,9_45_24_28894
1639,579.0,9_45_24_28910
1640,580.0,9_45_24_28927
1641,581.0,9_45_24_28943
1642,582.0,9_45_24_28960
1643,583.0,9_45_24_28977
1644,584.0,9_45_24_28993
1645,585.0,9_45_24_29010
1646,586.0,9_45_24_29027
1647,587.0,9_45_24_29043
1648,588.0,9_45_24_29060
1649,589.0,9_45_24_29077
1650,590.0,9_45_24_29093
1651,591.0,9_45_24_29110
1652,592.0,9_45_24_29127
1653,593.0,9_45_24_29143
1654,594.0,9_45_24_29160
1655,595.0,9_45_24_29177
1656,596.0,9_45_24_29193
1657,597.0,9_45_24_29210
1658,598.0,9_45_24_29227
1659,599.0,9_45_24_29243
1660,600.0,9_45_24_29260
1661,601.0,9_45_24_29276
1662,602.0,9_45_24_29294
1663,603.0,9_45_24_29310
1664,604.0,9_45_24_29327
1665,605.0,9_45_24_29343
1666,606.0,9_45_24_29360
1667,607.0,9_45_24_29376
1668,608.0,9_45_24_29394
1669,609.0,9_45_24_29410
1670,610.0,9_45_24_29426
1671,611.0,9_45_24_29444
1672,612.0,9_45_24_29460
1673,613.0,9_45_24_29476
1674,614.0,9_45_24_29494
1675,615.0,9_45_24_29510
1676,616.0,9_45_24_29527
1677,617.0,9_45_24_29543
1678,618.0,9_45_24_29560
1679,619.0,9_45_24_29576
1680,620.0,9_45_24_29594
1681,621.0,9_45_24_29610
1682,622.0,9_45_24_29627
1683,623.0,9_45_24_29644
1684,624.0,9_45_24_29660
1685,625.0,9_45_24_29677
1686,626.0,9_45_24_29693
1687,627.0,9_45_24_29710
1688,628.0,9_45_24_29726
1689,629.0,9_45_24_29744
1690,630.0,9_45_25_29760
1691,631.0,9_45_25_29776
1692,632.0,9_45_25_29794
1693,633.0,9_45_25_29810
1694,634.0,9_45_25_29826
1695,635.0,9_45_25_29843
1696,636.0,9_45_25_29860
1697,637.0,9_45_25_29877
1698,638.0,9_45_25_29893
1699,639.0,9_45_25_29910
1700,640.0,9_45_25_29927
1701,641.0,9_45_25_29943
1702,642.0,9_45_25_29960
1703,643.0,9_45_25_29977
1704,644.0,9_45_25_29994
1705,645.0,9_45_25_30010
1706,646.0,9_45_25_30027
1707,647.0,9_45_25_30043
1708,648.0,9_45_25_30109
1709,649.0,9_45_25_30125
1710,650.0,9_45_25_30142
1711,651.0,9_45_25_30159
1712,652.0,9_45_25_30175
1713,653.0,9_45_25_30192
1714,654.0,9_45_25_30209
1715,655.0,9_45_25_30226
1716,656.0,9_45_25_30242
1717,657.0,9_45_25_30259
1718,658.0,9_45_25_30275
1719,659.0,9_45_25_30292
1720,660.0,9_45_25_30309
1721,661.0,9_45_25_30325
1722,662.0,9_45_25_30342
1723,663.0,9_45_25_30358
1724,664.0,9_45_25_30376
1725,665.0,9_45_25_30392
1726,666.0,9_45_25_30409
1727,667.0,9_45_25_30426
1728,668.0,9_45_25_30442
1729,669.0,9_45_25_30458
1730,670.0,9_45_25_30476
1731,671.0,9_45_25_30492
1732,672.0,9_45_25_30509
1733,673.0,9_45_25_30525
1734,674.0,9_45_25_30542
1735,675.0,9_45_25_30559
1736,676.0,9_45_25_30576
1737,677.0,9_45_25_30592
1738,678.0,9_45_25_30609
1739,679.0,9_45_25_30626
1740,680.0,9_45_25_30643
1741,681.0,9_45_25_30659
1742,682.0,9_45_25_30675
1743,683.0,9_45_25_30692
1744,684.0,9_45_25_30709
1745,685.0,9_45_25_30726
1746,686.0,9_45_25_30742
1747,687.0,9_45_26_30758
1748,688.0,9_45_26_30776
1749,689.0,9_45_26_30792
1750,690.0,9_45_26_30809
1751,691.0,9_45_26_30825
1752,692.0,9_45_26_30842
1753,693.0,9_45_26_30859
1754,694.0,9_45_26_30876
1755,695.0,9_45_26_30892
1756,696.0,9_45_26_30909
1757,697.0,9_45_26_30925
1758,698.0,9_45_26_30942
1759,699.0,9_45_26_30959
1760,700.0,9_45_26_30976
1761,701.0,9_45_26_30992
1762,702.0,9_45_26_31009
1763,703.0,9_45_26_31026
1764,704.0,9_45_26_31042
1765,705.0,9_45_26_31058
1766,706.0,9_45_26_31076
1767,707.0,9_45_26_31092
1768,708.0,9_45_26_31109
1769,709.0,9_45_26_31125
1770,710.0,9_45_26_31142
1771,711.0,9_45_26_31159
1772,712.0,9_45_26_31176
1773,713.0,9_45_26_31192
1774,714.0,9_45_26_31208
1775,715.0,9_45_26_31225
1776,716.0,9_45_26_31242
1777,717.0,9_45_26_31259
1778,718.0,9_45_26_31276
1779,719.0,9_45_26_31292
1780,720.0,9_45_26_31309
1781,721.0,9_45_26_31326
1782,722.0,9_45_26_31342
1783,723.0,9_45_26_31359
1784,724.0,9_45_26_31376
1785,725.0,9_45_26_31392
1786,726.0,9_45_26_31409
1787,727.0,9_45_26_31425
1788,728.0,9_45_26_31442
1789,729.0,9_45_26_31459
1790,730.0,9_45_26_31476
1791,731.0,9_45_26_31492
1792,732.0,9_45_26_31509
1793,733.0,9_45_26_31525
1794,734.0,9_45_26_31542
1795,735.0,9_45_26_31559
1796,736.0,9_45_26_31575
1797,737.0,9_45_26_31592
1798,738.0,9_45_26_31609
1799,739.0,9_45_26_31626
1800,740.0,9_45_26_31642
1801,741.0,9_45_26_31661
1802,742.0,9_45_26_31675
1803,743.0,9_45_26_31692
1804,744.0,9_45_26_31709
1805,745.0,9_45_26_31725
1806,746.0,9_45_26_31742
1807,747.0,9_45_27_31759
1808,748.0,9_45_27_31776
1809,749.0,9_45_27_31792
1810,750.0,9_45_27_31809
1811,751.0,9_45_27_31826
1812,752.0,9_45_27_31842
1813,753.0,9_45_27_31859
1814,754.0,9_45_27_31875
1815,755.0,9_45_27_31892
1816,756.0,9_45_27_31908
1817,757.0,9_45_27_31926
1818,758.0,9_45_27_31942
1819,759.0,9_45_27_31958
1820,760.0,9_45_27_31976
1821,761.0,9_45_27_31992
1822,762.0,9_45_27_32009
1823,763.0,9_45_27_32026
1824,764.0,9_45_27_32042
1825,765.0,9_45_27_32058
1826,766.0,9_45_27_32076
1827,767.0,9_45_27_32092
1828,768.0,9_45_27_32109
1829,769.0,9_45_27_32126
1830,770.0,9_45_27_32143
1831,771.0,9_45_27_32159
1832,772.0,9_45_27_32176
1833,773.0,9_45_27_32192
1834,774.0,9_45_27_32209
1835,775.0,9_45_27_32225
1836,776.0,9_45_27_32242
1837,777.0,9_45_27_32258
1838,778.0,9_45_27_32276
1839,779.0,9_45_27_32292
1840,780.0,9_45_27_32309
1841,781.0,9_45_27_32325
1842,782.0,9_45_27_32342
1843,783.0,9_45_27_32358
1844,784.0,9_45_27_32376
1845,785.0,9_45_27_32392
1846,786.0,9_45_27_32409
1847,787.0,9_45_27_32426
1848,788.0,9_45_27_32442
1849,789.0,9_45_27_32459
1850,790.0,9_45_27_32475
1851,791.0,9_45_27_32492
1852,792.0,9_45_27_32509
1853,793.0,9_45_27_32526
1854,794.0,9_45_27_32542
1855,795.0,9_45_27_32559
1856,796.0,9_45_27_32575
1857,797.0,9_45_27_32592
1858,798.0,9_45_27_32609
1859,799.0,9_45_27_32626
1860,800.0,9_45_27_32642
1861,801.0,9_45_27_32659
1862,802.0,9_45_27_32675
1863,803.0,9_45_27_32692
1864,804.0,9_45_27_32709
1865,805.0,9_45_27_32726
1866,806.0,9_45_27_32742
1867,807.0,9_45_28_32759
1868,808.0,9_45_28_32775
1869,809.0,9_45_28_32793
1870,810.0,9_45_28_32808
1871,811.0,9_45_28_32825
1872,812.0,9_45_28_32842
1873,813.0,9_45_28_32859
1874,814.0,9_45_28_32875
1875,815.0,9_45_28_32892
1876,816.0,9_45_28_32909
1877,817.0,9_45_28_32925
1878,818.0,9_45_28_32942
1879,819.0,9_45_28_32958
1880,820.0,9_45_28_32976
1881,821.0,9_45_28_32992
1882,822.0,9_45_28_33009
1883,823.0,9_45_28_33025
1884,824.0,9_45_28_33042
1885,825.0,9_45_28_33059
1886,826.0,9_45_28_33075
1887,827.0,9_45_28_33092
1888,828.0,9_45_28_33109
1889,829.0,9_45_28_33126
1890,830.0,9_45_28_33142
1891,831.0,9_45_28_33159
1892,832.0,9_45_28_33176
1893,833.0,9_45_28_33193
1894,834.0,9_45_28_33209
1895,835.0,9_45_28_33226
1896,836.0,9_45_28_33242
1897,837.0,9_45_28_33259
1898,838.0,9_45_28_33275
1899,839.0,9_45_28_33292
1900,840.0,9_45_28_33308
1901,841.0,9_45_28_33325
1902,842.0,9_45_28_33342
1903,843.0,9_45_28_33359
1904,844.0,9_45_28_33376
1905,845.0,9_45_28_33392
1906,846.0,9_45_28_33409
1907,847.0,9_45_28_33426
1908,848.0,9_45_28_33442
1909,849.0,9_45_28_33459
1910,850.0,9_45_28_33476
1911,851.0,9_45_28_33492
1912,852.0,9_45_28_33508
1913,853.0,9_45_28_33526
1914,854.0,9_45_28_33543
1915,855.0,9_45_28_33559
1916,856.0,9_45_28_33576
1917,857.0,9_45_28_33593
1918,858.0,9_45_28_33609
1919,859.0,9_45_28_33626
1920,860.0,9_45_28_33642
1921,861.0,9_45_28_33659
1922,862.0,9_45_28_33676
1923,863.0,9_45_28_33693
1924,864.0,9_45_28_33708
1925,865.0,9_45_28_33726
1926,866.0,9_45_28_33742
1927,867.0,9_45_29_33759
1928,868.0,9_45_29_33776
1929,869.0,9_45_29_33792
1930,870.0,9_45_29_33809
1931,871.0,9_45_29_33826
1932,872.0,9_45_29_33842
1933,873.0,9_45_29_33859
1934,874.0,9_45_29_33875
1935,875.0,9_45_29_33892
1936,876.0,9_45_29_33908
1937,877.0,9_45_29_33925
1938,878.0,9_45_29_33943
1939,879.0,9_45_29_33959
1940,880.0,9_45_29_33975
1941,881.0,9_45_29_33993
1942,882.0,9_45_29_34009
1943,883.0,9_45_29_34025
1944,884.0,9_45_29_34042
1945,885.0,9_45_29_34059
1946,886.0,9_45_29_34075
1947,887.0,9_45_29_34093
1948,888.0,9_45_29_34109
1949,889.0,9_45_29_34126
1950,890.0,9_45_29_34142
1951,891.0,9_45_29_34159
1952,892.0,9_45_29_34176
1953,893.0,9_45_29_34193
1954,894.0,9_45_29_34209
1955,895.0,9_45_29_34226
1956,896.0,9_45_29_34242
1957,897.0,9_45_29_34259
1958,898.0,9_45_29_34275
1959,899.0,9_45_29_34292
1960,900.0,9_45_29_34309
1961,901.0,9_45_29_34325
1962,902.0,9_45_29_34342
1963,903.0,9_45_29_34359
1964,904.0,9_45_29_34376
1965,905.0,9_45_29_34392
1966,906.0,9_45_29_34409
1967,907.0,9_45_29_34425
1968,908.0,9_45_29_34442
1969,909.0,9_45_29_34459
1970,910.0,9_45_29_34476
1971,911.0,9_45_29_34492
1972,912.0,9_45_29_34509
1973,913.0,9_45_29_34526
1974,914.0,9_45_29_34542
1975,915.0,9_45_29_34559
1976,916.0,9_45_29_34575
1977,917.0,9_45_29_34593
1978,918.0,9_45_29_34609
1979,919.0,9_45_29_34625
1980,920.0,9_45_29_34642
1981,921.0,9_45_29_34658
1982,922.0,9_45_29_34676
1983,923.0,9_45_29_34693
1984,924.0,9_45_29_34709
1985,925.0,9_45_29_34726
1986,926.0,9_45_29_34742
1987,927.0,9_45_30_34759
1988,928.0,9_45_30_34776
1989,929.0,9_45_30_34792
1990,930.0,9_45_30_34809
1991,931.0,9_45_30_34825
1992,932.0,9_45_30_34843
1993,933.0,9_45_30_34859
1994,934.0,9_45_30_34876
1995,935.0,9_45_30_34892
1996,936.0,9_45_30_34909
1997,937.0,9_45_30_34926
1998,938.0,9_45_30_34943
1999,939.0,9_45_30_34959
2000,940.0,9_45_30_34975
2001,941.0,9_45_30_34993
2002,942.0,9_45_30_35009
2003,943.0,9_45_30_35026
2004,944.0,9_45_30_35042
2005,945.0,9_45_30_35072
2006,946.0,9_45_30_35168
2007,947.0,9_45_30_35205
2008,948.0,9_45_30_35221
2009,949.0,9_45_30_35238
2010,950.0,9_45_30_35254
2011,951.0,9_45_30_35271
2012,952.0,9_45_30_35288
2013,953.0,9_45_30_35305
2014,954.0,9_45_30_35321
2015,955.0,9_45_30_35338
2016,956.0,9_45_30_35355
2017,957.0,9_45_30_35372
2018,958.0,9_45_30_35388
2019,959.0,9_45_30_35404
2020,960.0,9_45_30_35422
2021,961.0,9_45_30_35438
2022,962.0,9_45_30_35455
2023,963.0,9_45_30_35471
2024,964.0,9_45_30_35488
2025,965.0,9_45_30_35505
2026,966.0,9_45_30_35521
2027,967.0,9_45_30_35537
2028,968.0,9_45_30_35555
2029,969.0,9_45_30_35572
2030,970.0,9_45_30_35588
2031,971.0,9_45_30_35605
2032,972.0,9_45_30_35621
2033,973.0,9_45_30_35637
2034,974.0,9_45_30_35655
2035,975.0,9_45_30_35671
2036,976.0,9_45_30_35688
2037,977.0,9_45_30_35704
2038,978.0,9_45_30_35722
2039,979.0,9_45_30_35738
2040,980.0,9_45_31_35754
2041,981.0,9_45_31_35771
2042,982.0,9_45_31_35788
2043,983.0,9_45_31_35804
2044,984.0,9_45_31_35821
2045,985.0,9_45_31_35838
2046,986.0,9_45_31_35855
2047,987.0,9_45_31_35872
2048,988.0,9_45_31_35888
2049,989.0,9_45_31_35904
2050,990.0,9_45_31_35921
2051,991.0,9_45_31_35938
2052,992.0,9_45_31_35955
2053,993.0,9_45_31_35971
2054,994.0,9_45_31_35988
2055,995.0,9_45_31_36005
2056,996.0,9_45_31_36021
2057,997.0,9_45_31_36038
2058,998.0,9_45_31_36055
2059,999.0,9_45_31_36071
2060,1000.0,9_45_31_36088
2061,1001.0,9_45_31_36104
2062,1002.0,9_45_31_36122
2063,1003.0,9_45_31_36138
2064,1004.0,9_45_31_36155
2065,1005.0,9_45_31_36171
2066,1006.0,9_45_31_36188
2067,1007.0,9_45_31_36204
2068,1008.0,9_45_31_36221
2069,1009.0,9_45_31_36238
2070,1010.0,9_45_31_36255
2071,1011.0,9_45_31_36272
2072,1012.0,9_45_31_36288
2073,1013.0,9_45_31_36305
2074,1014.0,9_45_31_36321
2075,1015.0,9_45_31_36338
2076,1016.0,9_45_31_36355
2077,1017.0,9_45_31_36371
2078,1018.0,9_45_31_36388
2079,1019.0,9_45_31_36405
2080,1020.0,9_45_31_36421
2081,1021.0,9_45_31_36438
2082,1022.0,9_45_31_36455
2083,1023.0,9_45_31_36471
2084,0.0,9_45_31_36488
2085,1.0,9_45_31_36505
2086,2.0,9_45_31_36521
2087,3.0,9_45_31_36538
2088,4.0,9_45_31_36555
2089,5.0,9_45_31_36571
2090,6.0,9_45_31_36588
2091,7.0,9_45_31_36605
2092,8.0,9_45_31_36622
2093,9.0,9_45_31_36639
2094,10.0,9_45_31_36655
2095,11.0,9_45_31_36672
2096,12.0,9_45_31_36688
2097,13.0,9_45_31_36705
2098,14.0,9_45_31_36721
2099,15.0,9_45_31_36738
2100,16.0,9_45_32_36755
2101,17.0,9_45_32_36771
2102,18.0,9_45_32_36788
2103,19.0,9_45_32_36804
2104,20.0,9_45_32_36822
2105,21.0,9_45_32_36838
2106,22.0,9_45_32_36855
2107,23.0,9_45_32_36872
2108,24.0,9_45_32_36888
2109,25.0,9_45_32_36905
2110,26.0,9_45_32_36922
2111,27.0,9_45_32_36938
2112,28.0,9_45_32_36955
2113,29.0,9_45_32_36971
2114,30.0,9_45_32_36988
2115,31.0,9_45_32_37005
2116,32.0,9_45_32_37021
2117,33.0,9_45_32_37038
2118,34.0,9_45_32_37054
2119,35.0,9_45_32_37072
2120,36.0,9_45_32_37088
2121,37.0,9_45_32_37104
2122,38.0,9_45_32_37122
2123,39.0,9_45_32_37138
2124,40.0,9_45_32_37155
2125,41.0,9_45_32_37171
2126,42.0,9_45_32_37188
2127,43.0,9_45_32_37205
2128,44.0,9_45_32_37221
2129,45.0,9_45_32_37238
2130,46.0,9_45_32_37254
2131,47.0,9_45_32_37271
2132,48.0,9_45_32_37288
2133,49.0,9_45_32_37305
2134,50.0,9_45_32_37322
2135,51.0,9_45_32_37337
2136,52.0,9_45_32_37355
2137,53.0,9_45_32_37372
2138,54.0,9_45_32_37388
2139,55.0,9_45_32_37404
2140,56.0,9_45_32_37422
2141,57.0,9_45_32_37438
2142,58.0,9_45_32_37455
2143,59.0,9_45_32_37472
2144,60.0,9_45_32_37488
2145,61.0,9_45_32_37504
2146,62.0,9_45_32_37522
2147,63.0,9_45_32_37538
2148,64.0,9_45_32_37555
2149,65.0,9_45_32_37571
2150,66.0,9_45_32_37588
2151,67.0,9_45_32_37604
2152,68.0,9_45_32_37622
2153,69.0,9_45_32_37638
2154,70.0,9_45_32_37655
2155,71.0,9_45_32_37671
2156,72.0,9_45_32_37688
2157,73.0,9_45_32_37705
2158,74.0,9_45_32_37721
2159,75.0,9_45_32_37738
2160,76.0,9_45_33_37755
2161,77.0,9_45_33_37771
2162,78.0,9_45_33_37788
2163,79.0,9_45_33_37804
2164,80.0,9_45_33_37821
2165,81.0,9_45_33_37838
2166,82.0,9_45_33_37855
2167,83.0,9_45_33_37871
2168,84.0,9_45_33_37888
2169,85.0,9_45_33_37904
2170,86.0,9_45_33_37922
2171,87.0,9_45_33_37938
2172,88.0,9_45_33_37955
2173,89.0,9_45_33_37971
2174,90.0,9_45_33_37988
2175,91.0,9_45_33_38005
2176,92.0,9_45_33_38022
2177,93.0,9_45_33_38038
2178,94.0,9_45_33_38054
2179,95.0,9_45_33_38071
2180,96.0,9_45_33_38088
2181,97.0,9_45_33_38105
2182,98.0,9_45_33_38121
2183,99.0,9_45_33_38138
2184,100.0,9_45_33_38155
2185,101.0,9_45_33_38171
2186,102.0,9_45_33_38188
2187,103.0,9_45_33_38204
2188,104.0,9_45_33_38221
2189,105.0,9_45_33_38238
2190,106.0,9_45_33_38255
2191,107.0,9_45_33_38272
2192,108.0,9_45_33_38289
2193,109.0,9_45_33_38304
2194,110.0,9_45_33_38321
2195,111.0,9_45_33_38338
2196,112.0,9_45_33_38355
2197,113.0,9_45_33_38372
2198,114.0,9_45_33_38388
2199,115.0,9_45_33_38405
2200,116.0,9_45_33_38421
2201,117.0,9_45_33_38438
2202,118.0,9_45_33_38455
2203,119.0,9_45_33_38471
2204,120.0,9_45_33_38488
2205,121.0,9_45_33_38504
2206,122.0,9_45_33_38521
2207,123.0,9_45_33_38538
2208,124.0,9_45_33_38555
2209,125.0,9_45_33_38572
2210,126.0,9_45_33_38588
2211,127.0,9_45_33_38605
2212,128.0,9_45_33_38622
2213,129.0,9_45_33_38638
2214,130.0,9_45_33_38655
2215,131.0,9_45_33_38671
2216,132.0,9_45_33_38688
2217,133.0,9_45_33_38705
2218,134.0,9_45_33_38721
2219,135.0,9_45_33_38738
2220,136.0,9_45_34_38755
2221,137.0,9_45_34_38772
2222,138.0,9_45_34_38788
2223,139.0,9_45_34_38805
2224,140.0,9_45_34_38821
2225,141.0,9_45_34_38838
2226,142.0,9_45_34_38854
2227,143.0,9_45_34_38871
2228,144.0,9_45_34_38888
2229,145.0,9_45_34_38905
2230,146.0,9_45_34_38922
2231,147.0,9_45_34_38938
2232,148.0,9_45_34_38955
2233,149.0,9_45_34_38971
2234,150.0,9_45_34_38988
2235,151.0,9_45_34_39005
2236,152.0,9_45_34_39021
2237,153.0,9_45_34_39038
2238,154.0,9_45_34_39055
2239,155.0,9_45_34_39071
2240,156.0,9_45_34_39088
2241,157.0,9_45_34_39105
2242,158.0,9_45_34_39121
2243,159.0,9_45_34_39138
2244,160.0,9_45_34_39154
2245,161.0,9_45_34_39172
2246,162.0,9_45_34_39188
2247,163.0,9_45_34_39204
2248,164.0,9_45_34_39221
2249,165.0,9_45_34_39238
2250,166.0,9_45_34_39255
2251,167.0,9_45_34_39271
2252,168.0,9_45_34_39288
2253,169.0,9_45_34_39305
2254,170.0,9_45_34_39322
2255,171.0,9_45_34_39338
2256,172.0,9_45_34_39355
2257,173.0,9_45_34_39371
2258,174.0,9_45_34_39388
2259,175.0,9_45_34_39405
2260,176.0,9_45_34_39421
2261,177.0,9_45_34_39438
2262,178.0,9_45_34_39455
2263,179.0,9_45_34_39471
2264,180.0,9_45_34_39488
2265,181.0,9_45_34_39505
2266,182.0,9_45_34_39522
2267,183.0,9_45_34_39538
2268,184.0,9_45_34_39555
2269,185.0,9_45_34_39571
2270,186.0,9_45_34_39588
2271,187.0,9_45_34_39605
2272,188.0,9_45_34_39621
2273,189.0,9_45_34_39638
2274,190.0,9_45_34_39655
2275,191.0,9_45_34_39672
2276,192.0,9_45_34_39688
2277,193.0,9_45_34_39705
2278,194.0,9_45_34_39721
2279,195.0,9_45_34_39738
2280,196.0,9_45_35_39754
2281,197.0,9_45_35_39771
2282,198.0,9_45_35_39788
2283,199.0,9_45_35_39805
2284,200.0,9_45_35_39821
2285,201.0,9_45_35_39838
2286,202.0,9_45_35_39854
2287,203.0,9_45_35_39872
2288,204.0,9_45_35_39888
2289,205.0,9_45_35_39905
2290,206.0,9_45_35_39922
2291,207.0,9_45_35_39938
2292,208.0,9_45_35_39955
2293,209.0,9_45_35_39971
2294,210.0,9_45_35_39988
2295,211.0,9_45_35_40005
2296,212.0,9_45_35_40021
2297,213.0,9_45_35_40038
2298,214.0,9_45_35_40055
2299,215.0,9_45_35_40148
2300,216.0,9_45_35_40164
2301,217.0,9_45_35_40181
2302,218.0,9_45_35_40198
2303,219.0,9_45_35_40215
2304,220.0,9_45_35_40231
2305,221.0,9_45_35_40248
2306,222.0,9_45_35_40264
2307,223.0,9_45_35_40280
2308,224.0,9_45_35_40298
2309,225.0,9_45_35_40314
2310,226.0,9_45_35_40331
2311,227.0,9_45_35_40348
2312,228.0,9_45_35_40364
2313,229.0,9_45_35_40381
2314,230.0,9_45_35_40398
2315,231.0,9_45_35_40414
2316,232.0,9_45_35_40430
2317,233.0,9_45_35_40447
2318,234.0,9_45_35_40465
2319,235.0,9_45_35_40481
2320,236.0,9_45_35_40498
2321,237.0,9_45_35_40514
2322,238.0,9_45_35_40531
2323,239.0,9_45_35_40547
2324,240.0,9_45_35_40565
2325,241.0,9_45_35_40581
2326,242.0,9_45_35_40597
2327,243.0,9_45_35_40614
2328,244.0,9_45_35_40630
2329,245.0,9_45_35_40648
2330,246.0,9_45_35_40664
2331,247.0,9_45_35_40681
2332,248.0,9_45_35_40698
2333,249.0,9_45_35_40714
2334,250.0,9_45_35_40731
2335,251.0,9_45_36_40747
2336,252.0,9_45_36_40765
2337,253.0,9_45_36_40781
2338,254.0,9_45_36_40798
2339,255.0,9_45_36_40815
2340,256.0,9_45_36_40831
2341,257.0,9_45_36_40847
2342,258.0,9_45_36_40864
2343,259.0,9_45_36_40881
2344,260.0,9_45_36_40897
2345,261.0,9_45_36_40914
2346,262.0,9_45_36_40931
2347,263.0,9_45_36_40948
2348,264.0,9_45_36_40965
2349,265.0,9_45_36_40981
2350,266.0,9_45_36_40998
2351,267.0,9_45_36_41015
2352,268.0,9_45_36_41031
2353,269.0,9_45_36_41048
2354,270.0,9_45_36_41064
2355,271.0,9_45_36_41081
2356,272.0,9_45_36_41098
2357,273.0,9_45_36_41115
2358,274.0,9_45_36_41131
2359,275.0,9_45_36_41147
2360,276.0,9_45_36_41164
2361,277.0,9_45_36_41181
2362,278.0,9_45_36_41198
2363,279.0,9_45_36_41214
2364,280.0,9_45_36_41231
2365,281.0,9_45_36_41248
2366,282.0,9_45_36_41264
2367,283.0,9_45_36_41281
2368,284.0,9_45_36_41298
2369,285.0,9_45_36_41314
2370,286.0,9_45_36_41331
2371,287.0,9_45_36_41348
2372,288.0,9_45_36_41364
2373,289.0,9_45_36_41381
2374,290.0,9_45_36_41398
2375,291.0,9_45_36_41415
2376,292.0,9_45_36_41431
2377,293.0,9_45_36_41448
2378,294.0,9_45_36_41464
2379,295.0,9_45_36_41481
2380,296.0,9_45_36_41498
2381,297.0,9_45_36_41514
2382,298.0,9_45_36_41531
2383,299.0,9_45_36_41548
2384,300.0,9_45_36_41564
2385,301.0,9_45_36_41580
2386,302.0,9_45_36_41597
2387,303.0,9_45_36_41614
2388,304.0,9_45_36_41631
2389,305.0,9_45_36_41648
2390,306.0,9_45_36_41664
2391,307.0,9_45_36_41681
2392,308.0,9_45_36_41698
2393,309.0,9_45_36_41714
2394,310.0,9_45_36_41731
2395,311.0,9_45_37_41748
2396,312.0,9_45_37_41764
2397,313.0,9_45_37_41781
2398,314.0,9_45_37_41798
2399,315.0,9_45_37_41814
2400,316.0,9_45_37_41831
2401,317.0,9_45_37_41848
2402,318.0,9_45_37_41864
2403,319.0,9_45_37_41881
2404,320.0,9_45_37_41897
2405,321.0,9_45_37_41914
2406,322.0,9_45_37_41931
2407,323.0,9_45_37_41948
2408,324.0,9_45_37_41964
2409,325.0,9_45_37_41981
2410,326.0,9_45_37_41997
2411,327.0,9_45_37_42014
2412,328.0,9_45_37_42031
2413,329.0,9_45_37_42047
2414,330.0,9_45_37_42064
2415,331.0,9_45_37_42081
2416,332.0,9_45_37_42098
2417,333.0,9_45_37_42114
2418,334.0,9_45_37_42131
2419,335.0,9_45_37_42147
2420,336.0,9_45_37_42164
2421,337.0,9_45_37_42181
2422,338.0,9_45_37_42197
2423,339.0,9_45_37_42214
2424,340.0,9_45_37_42231
2425,341.0,9_45_37_42247
2426,342.0,9_45_37_42264
2427,343.0,9_45_37_42281
2428,344.0,9_45_37_42297
2429,345.0,9_45_37_42314
2430,346.0,9_45_37_42331
2431,347.0,9_45_37_42348
2432,348.0,9_45_37_42365
2433,349.0,9_45_37_42381
2434,350.0,9_45_37_42398
2435,351.0,9_45_37_42414
2436,352.0,9_45_37_42431
2437,353.0,9_45_37_42447
2438,354.0,9_45_37_42464
2439,355.0,9_45_37_42481
2440,356.0,9_45_37_42497
2441,357.0,9_45_37_42514
2442,358.0,9_45_37_42531
2443,359.0,9_45_37_42547
2444,360.0,9_45_37_42565
2445,361.0,9_45_37_42581
2446,362.0,9_45_37_42598
2447,363.0,9_45_37_42615
2448,364.0,9_45_37_42631
2449,365.0,9_45_37_42648
2450,366.0,9_45_37_42665
2451,367.0,9_45_37_42681
2452,368.0,9_45_37_42698
2453,369.0,9_45_37_42714
2454,370.0,9_45_37_42731
2455,371.0,9_45_38_42747
2456,372.0,9_45_38_42764
2457,373.0,9_45_38_42781
2458,374.0,9_45_38_42797
2459,375.0,9_45_38_42814
2460,376.0,9_45_38_42831
2461,377.0,9_45_38_42847
2462,378.0,9_45_38_42864
2463,379.0,9_45_38_42881
2464,380.0,9_45_38_42898
2465,381.0,9_45_38_42915
2466,382.0,9_45_38_42931
2467,383.0,9_45_38_42948
2468,384.0,9_45_38_42964
2469,385.0,9_45_38_42981
2470,386.0,9_45_38_42997
2471,387.0,9_45_38_43015
2472,388.0,9_45_38_43031
2473,389.0,9_45_38_43048
2474,390.0,9_45_38_43065
2475,391.0,9_45_38_43081
2476,392.0,9_45_38_43097
2477,393.0,9_45_38_43114
2478,394.0,9_45_38_43131
2479,395.0,9_45_38_43148
2480,396.0,9_45_38_43165
2481,397.0,9_45_38_43181
2482,398.0,9_45_38_43198
2483,399.0,9_45_38_43214
2484,400.0,9_45_38_43231
2485,401.0,9_45_38_43247
2486,402.0,9_45_38_43265
2487,403.0,9_45_38_43281
2488,404.0,9_45_38_43297
2489,405.0,9_45_38_43315
2490,406.0,9_45_38_43331
2491,407.0,9_45_38_43348
2492,408.0,9_45_38_43365
2493,409.0,9_45_38_43381
2494,410.0,9_45_38_43398
2495,411.0,9_45_38_43415
2496,412.0,9_45_38_43431
2497,413.0,9_45_38_43448
2498,414.0,9_45_38_43464
2499,415.0,9_45_38_43481
2500,416.0,9_45_38_43498
2501,417.0,9_45_38_43514
2502,418.0,9_45_38_43531
2503,419.0,9_45_38_43547
2504,420.0,9_45_38_43565
2505,421.0,9_45_38_43581
2506,422.0,9_45_38_43597
2507,423.0,9_45_38_43614
2508,424.0,9_45_38_43631
2509,425.0,9_45_38_43648
2510,426.0,9_45_38_43665
2511,427.0,9_45_38_43681
2512,428.0,9_45_38_43697
2513,429.0,9_45_38_43714
2514,430.0,9_45_38_43731
2515,431.0,9_45_39_43748
2516,432.0,9_45_39_43764
2517,433.0,9_45_39_43782
2518,434.0,9_45_39_43798
2519,435.0,9_45_39_43814
2520,436.0,9_45_39_43832
2521,437.0,9_45_39_43848
2522,438.0,9_45_39_43864
2523,439.0,9_45_39_43881
2524,440.0,9_45_39_43898
2525,441.0,9_45_39_43914
2526,442.0,9_45_39_43931
2527,443.0,9_45_39_43948
2528,444.0,9_45_39_43965
2529,445.0,9_45_39_43981
2530,446.0,9_45_39_43998
2531,447.0,9_45_39_44014
2532,448.0,9_45_39_44031
2533,449.0,9_45_39_44047
2534,450.0,9_45_39_44064
2535,451.0,9_45_39_44081
2536,452.0,9_45_39_44098
2537,453.0,9_45_39_44114
2538,454.0,9_45_39_44131
2539,455.0,9_45_39_44147
2540,456.0,9_45_39_44164
2541,457.0,9_45_39_44181
2542,458.0,9_45_39_44197
2543,459.0,9_45_39_44214
2544,460.0,9_45_39_44231
2545,461.0,9_45_39_44248
2546,462.0,9_45_39_44265
2547,463.0,9_45_39_44281
2548,464.0,9_45_39_44297
2549,465.0,9_45_39_44314
2550,466.0,9_45_39_44331
2551,467.0,9_45_39_44348
2552,468.0,9_45_39_44364
2553,469.0,9_45_39_44381
2554,470.0,9_45_39_44397
2555,471.0,9_45_39_44414
2556,472.0,9_45_39_44431
2557,473.0,9_45_39_44448
2558,474.0,9_45_39_44464
2559,475.0,9_45_39_44481
2560,476.0,9_45_39_44498
2561,477.0,9_45_39_44515
2562,478.0,9_45_39_44531
2563,479.0,9_45_39_44548
2564,480.0,9_45_39_44564
2565,481.0,9_45_39_44581
2566,482.0,9_45_39_44598
2567,483.0,9_45_39_44615
2568,484.0,9_45_39_44631
2569,485.0,9_45_39_44648
2570,486.0,9_45_39_44665
2571,487.0,9_45_39_44681
2572,488.0,9_45_39_44698
2573,489.0,9_45_39_44714
2574,490.0,9_45_39_44731
2575,491.0,9_45_40_44748
2576,492.0,9_45_40_44764
2577,493.0,9_45_40_44781
2578,494.0,9_45_40_44798
2579,495.0,9_45_40_44814
2580,496.0,9_45_40_44831
2581,497.0,9_45_40_44848
2582,498.0,9_45_40_44864
2583,499.0,9_45_40_44882
2584,500.0,9_45_40_44897
2585,501.0,9_45_40_44914
2586,502.0,9_45_40_44931
2587,503.0,9_45_40_44948
2588,504.0,9_45_40_44964
2589,505.0,9_45_40_44981
2590,506.0,9_45_40_44998
2591,507.0,9_45_40_45014
2592,508.0,9_45_40_45031
2593,509.0,9_45_40_45047
2594,510.0,9_45_40_45064
2595,511.0,9_45_40_45084
2596,512.0,9_45_40_45101
2597,513.0,9_45_40_45118
2598,514.0,9_45_40_45134
2599,515.0,9_45_40_45150
2600,516.0,9_45_40_45167
2601,517.0,9_45_40_45184
2602,518.0,9_45_40_45201
2603,519.0,9_45_40_45217
2604,520.0,9_45_40_45234
2605,521.0,9_45_40_45250
2606,522.0,9_45_40_45267
2607,523.0,9_45_40_45284
2608,524.0,9_45_40_45300
2609,525.0,9_45_40_45317
2610,526.0,9_45_40_45334
2611,527.0,9_45_40_45351
2612,528.0,9_45_40_45368
2613,529.0,9_45_40_45384
2614,530.0,9_45_40_45400
2615,531.0,9_45_40_45417
2616,532.0,9_45_40_45434
2617,533.0,9_45_40_45451
2618,534.0,9_45_40_45467
2619,535.0,9_45_40_45484
2620,536.0,9_45_40_45501
2621,537.0,9_45_40_45517
2622,538.0,9_45_40_45534
2623,539.0,9_45_40_45551
2624,540.0,9_45_40_45567
2625,541.0,9_45_40_45584
2626,542.0,9_45_40_45601
2627,543.0,9_45_40_45617
2628,544.0,9_45_40_45634
2629,545.0,9_45_40_45651
2630,546.0,9_45_40_45668
2631,547.0,9_45_40_45685
2632,548.0,9_45_40_45700
2633,549.0,9_45_40_45717
2634,550.0,9_45_40_45734
2635,551.0,9_45_41_45751
2636,552.0,9_45_41_45767
2637,553.0,9_45_41_45784
2638,554.0,9_45_41_45800
2639,555.0,9_45_41_45818
2640,556.0,9_45_41_45834
2641,557.0,9_45_41_45850
2642,558.0,9_45_41_45867
2643,559.0,9_45_41_45884
2644,560.0,9_45_41_45901
2645,561.0,9_45_41_45917
2646,562.0,9_45_41_45934
2647,563.0,9_45_41_45951
2648,564.0,9_45_41_45967
2649,565.0,9_45_41_45984
2650,566.0,9_45_41_46001
2651,567.0,9_45_41_46018
2652,568.0,9_45_41_46034
2653,569.0,9_45_41_46051
2654,570.0,9_45_41_46067
2655,571.0,9_45_41_46084
2656,572.0,9_45_41_46101
2657,573.0,9_45_41_46118
2658,574.0,9_45_41_46134
2659,575.0,9_45_41_46151
2660,576.0,9_45_41_46167
2661,577.0,9_45_41_46185
2662,578.0,9_45_41_46200
2663,579.0,9_45_41_46217
2664,580.0,9_45_41_46234
2665,581.0,9_45_41_46251
2666,582.0,9_45_41_46268
2667,583.0,9_45_41_46284
2668,584.0,9_45_41_46301
2669,585.0,9_45_41_46318
2670,586.0,9_45_41_46334
2671,587.0,9_45_41_46351
2672,588.0,9_45_41_46367
2673,589.0,9_45_41_46384
2674,590.0,9_45_41_46400
2675,591.0,9_45_41_46418
2676,592.0,9_45_41_46434
2677,593.0,9_45_41_46451
2678,594.0,9_45_41_46467
2679,595.0,9_45_41_46484
2680,596.0,9_45_41_46501
2681,597.0,9_45_41_46517
2682,598.0,9_45_41_46534
2683,599.0,9_45_41_46551
2684,600.0,9_45_41_46568
2685,601.0,9_45_41_46585
2686,602.0,9_45_41_46601
2687,603.0,9_45_41_46617
2688,604.0,9_45_41_46634
2689,605.0,9_45_41_46651
2690,606.0,9_45_41_46667
2691,607.0,9_45_41_46684
2692,608.0,9_45_41_46701
2693,609.0,9_45_41_46718
2694,610.0,9_45_41_46734
2695,611.0,9_45_42_46751
2696,612.0,9_45_42_46768
2697,613.0,9_45_42_46784
2698,614.0,9_45_42_46801
2699,615.0,9_45_42_46817
2700,616.0,9_45_42_46834
2701,617.0,9_45_42_46851
2702,618.0,9_45_42_46870
2703,619.0,9_45_42_46884
2704,620.0,9_45_42_46901
2705,621.0,9_45_42_46917
2706,622.0,9_45_42_46934
2707,623.0,9_45_42_46951
2708,624.0,9_45_42_46967
2709,625.0,9_45_42_46984
2710,626.0,9_45_42_47001
2711,627.0,9_45_42_47018
2712,628.0,9_45_42_47034
2713,629.0,9_45_42_47051
2714,630.0,9_45_42_47068
2715,631.0,9_45_42_47085
2716,632.0,9_45_42_47101
2717,633.0,9_45_42_47117
2718,634.0,9_45_42_47134
2719,635.0,9_45_42_47151
2720,636.0,9_45_42_47168
2721,637.0,9_45_42_47184
2722,638.0,9_45_42_47201
2723,639.0,9_45_42_47217
2724,640.0,9_45_42_47234
2725,641.0,9_45_42_47251
2726,642.0,9_45_42_47267
2727,643.0,9_45_42_47284
2728,644.0,9_45_42_47301
2729,645.0,9_45_42_47318
2730,646.0,9_45_42_47334
2731,647.0,9_45_42_47351
2732,648.0,9_45_42_47368
2733,649.0,9_45_42_47385
2734,650.0,9_45_42_47401
2735,651.0,9_45_42_47417
2736,652.0,9_45_42_47435
2737,653.0,9_45_42_47451
2738,654.0,9_45_42_47468
2739,655.0,9_45_42_47484
2740,656.0,9_45_42_47501
2741,657.0,9_45_42_47518
2742,658.0,9_45_42_47535
2743,659.0,9_45_42_47551
2744,660.0,9_45_42_47567
2745,661.0,9_45_42_47584
2746,662.0,9_45_42_47600
2747,663.0,9_45_42_47617
2748,664.0,9_45_42_47634
2749,665.0,9_45_42_47651
2750,666.0,9_45_42_47668
2751,667.0,9_45_42_47685
2752,668.0,9_45_42_47700
2753,669.0,9_45_42_47717
2754,670.0,9_45_42_47734
2755,671.0,9_45_43_47751
2756,672.0,9_45_43_47768
2757,673.0,9_45_43_47785
2758,674.0,9_45_43_47800
2759,675.0,9_45_43_47818
2760,676.0,9_45_43_47834
2761,677.0,9_45_43_47851
2762,678.0,9_45_43_47867
2763,679.0,9_45_43_47884
2764,680.0,9_45_43_47901
2765,681.0,9_45_43_47917
2766,682.0,9_45_43_47934
2767,683.0,9_45_43_47951
2768,684.0,9_45_43_47967
2769,685.0,9_45_43_47984
2770,686.0,9_45_43_48001
2771,687.0,9_45_43_48018
2772,688.0,9_45_43_48034
2773,689.0,9_45_43_48051
2774,690.0,9_45_43_48068
2775,691.0,9_45_43_48085
2776,692.0,9_45_43_48100
2777,693.0,9_45_43_48118
2778,694.0,9_45_43_48134
2779,695.0,9_45_43_48150
2780,696.0,9_45_43_48167
2781,697.0,9_45_43_48184
2782,698.0,9_45_43_48201
2783,699.0,9_45_43_48218
2784,700.0,9_45_43_48234
2785,701.0,9_45_43_48251
2786,702.0,9_45_43_48268
2787,703.0,9_45_43_48285
2788,704.0,9_45_43_48301
2789,705.0,9_45_43_48318
2790,706.0,9_45_43_48334
2791,707.0,9_45_43_48351
2792,708.0,9_45_43_48367
2793,709.0,9_45_43_48384
2794,710.0,9_45_43_48401
2795,711.0,9_45_43_48417
2796,712.0,9_45_43_48434
2797,713.0,9_45_43_48451
2798,714.0,9_45_43_48468
2799,715.0,9_45_43_48484
2800,716.0,9_45_43_48501
2801,717.0,9_45_43_48517
2802,718.0,9_45_43_48534
2803,719.0,9_45_43_48551
2804,720.0,9_45_43_48567
2805,721.0,9_45_43_48584
2806,722.0,9_45_43_48601
2807,723.0,9_45_43_48617
2808,724.0,9_45_43_48634
2809,725.0,9_45_43_48651
2810,726.0,9_45_43_48667
2811,727.0,9_45_43_48685
2812,728.0,9_45_43_48701
2813,729.0,9_45_43_48717
2814,730.0,9_45_43_48735
2815,731.0,9_45_44_48751
2816,732.0,9_45_44_48768
2817,733.0,9_45_44_48785
2818,734.0,9_45_44_48801
2819,735.0,9_45_44_48818
2820,736.0,9_45_44_48834
2821,737.0,9_45_44_48851
2822,738.0,9_45_44_48867
2823,739.0,9_45_44_48885
2824,740.0,9_45_44_48901
2825,741.0,9_45_44_48918
2826,742.0,9_45_44_48934
2827,743.0,9_45_44_48950
2828,744.0,9_45_44_48967
2829,745.0,9_45_44_48984
2830,746.0,9_45_44_49001
2831,747.0,9_45_44_49017
2832,748.0,9_45_44_49034
2833,749.0,9_45_44_49051
2834,750.0,9_45_44_49068
2835,751.0,9_45_44_49084
2836,752.0,9_45_44_49101
2837,753.0,9_45_44_49117
2838,754.0,9_45_44_49134
2839,755.0,9_45_44_49151
2840,756.0,9_45_44_49168
2841,757.0,9_45_44_49185
2842,758.0,9_45_44_49201
2843,759.0,9_45_44_49218
2844,760.0,9_45_44_49235
2845,761.0,9_45_44_49251
2846,762.0,9_45_44_49268
2847,763.0,9_45_44_49284
2848,764.0,9_45_44_49301
2849,765.0,9_45_44_49317
2850,766.0,9_45_44_49334
2851,767.0,9_45_44_49351
2852,768.0,9_45_44_49367
2853,769.0,9_45_44_49384
2854,770.0,9_45_44_49401
2855,771.0,9_45_44_49418
2856,772.0,9_45_44_49434
2857,773.0,9_45_44_49451
2858,774.0,9_45_44_49468
2859,775.0,9_45_44_49484
2860,776.0,9_45_44_49501
2861,777.0,9_45_44_49518
2862,778.0,9_45_44_49534
2863,779.0,9_45_44_49551
2864,780.0,9_45_44_49567
2865,781.0,9_45_44_49584
2866,782.0,9_45_44_49601
2867,783.0,9_45_44_49617
2868,784.0,9_45_44_49634
2869,785.0,9_45_44_49651
2870,786.0,9_45_44_49668
2871,787.0,9_45_44_49684
2872,788.0,9_45_44_49701
2873,789.0,9_45_44_49718
2874,790.0,9_45_44_49735
2875,791.0,9_45_45_49751
2876,792.0,9_45_45_49768
2877,793.0,9_45_45_49784
2878,794.0,9_45_45_49801
2879,795.0,9_45_45_49818
2880,796.0,9_45_45_49834
2881,797.0,9_45_45_49851
2882,798.0,9_45_45_49868
2883,799.0,9_45_45_49884
2884,800.0,9_45_45_49901
2885,801.0,9_45_45_49918
2886,802.0,9_45_45_49935
2887,803.0,9_45_45_49951
2888,804.0,9_45_45_49968
2889,805.0,9_45_45_49984
2890,806.0,9_45_45_50001
2891,807.0,9_45_45_50017
2892,808.0,9_45_45_50034
2893,809.0,9_45_45_50051
2894,810.0,9_45_45_50068
2895,811.0,9_45_45_50094
2896,812.0,9_45_45_50111
2897,813.0,9_45_45_50128
2898,814.0,9_45_45_50144
2899,815.0,9_45_45_50161
2900,816.0,9_45_45_50177
2901,817.0,9_45_45_50194
2902,818.0,9_45_45_50211
2903,819.0,9_45_45_50228
2904,820.0,9_45_45_50245
2905,821.0,9_45_45_50260
2906,822.0,9_45_45_50277
2907,823.0,9_45_45_50294
2908,824.0,9_45_45_50311
2909,825.0,9_45_45_50328
2910,826.0,9_45_45_50345
2911,827.0,9_45_45_50361
2912,828.0,9_45_45_50378
2913,829.0,9_45_45_50394
2914,830.0,9_45_45_50411
2915,831.0,9_45_45_50428
2916,832.0,9_45_45_50444
2917,833.0,9_45_45_50461
2918,834.0,9_45_45_50477
2919,835.0,9_45_45_50494
2920,836.0,9_45_45_50511
2921,837.0,9_45_45_50528
2922,838.0,9_45_45_50544
2923,839.0,9_45_45_50561
2924,840.0,9_45_45_50578
2925,841.0,9_45_45_50594
2926,842.0,9_45_45_50611
2927,843.0,9_45_45_50628
2928,844.0,9_45_45_50644
2929,845.0,9_45_45_50661
2930,846.0,9_45_45_50678
2931,847.0,9_45_45_50694
2932,848.0,9_45_45_50711
2933,849.0,9_45_45_50728
2934,850.0,9_45_45_50744
2935,851.0,9_45_46_50761
2936,852.0,9_45_46_50777
2937,853.0,9_45_46_50794
2938,854.0,9_45_46_50811
2939,855.0,9_45_46_50828
2940,856.0,9_45_46_50844
2941,857.0,9_45_46_50861
2942,858.0,9_45_46_50878
2943,859.0,9_45_46_50894
2944,860.0,9_45_46_50911
2945,861.0,9_45_46_50928
2946,862.0,9_45_46_50945
2947,863.0,9_45_46_50961
2948,864.0,9_45_46_50977
2949,865.0,9_45_46_50994
2950,866.0,9_45_46_51011
2951,867.0,9_45_46_51028
2952,868.0,9_45_46_51044
2953,869.0,9_45_46_51061
2954,870.0,9_45_46_51078
2955,871.0,9_45_46_51094
2956,872.0,9_45_46_51111
2957,873.0,9_45_46_51146
2958,874.0,9_45_46_51164
2959,875.0,9_45_46_51180
2960,876.0,9_45_46_51196
2961,877.0,9_45_46_51213
2962,878.0,9_45_46_51230
2963,879.0,9_45_46_51247
2964,880.0,9_45_46_51263
2965,881.0,9_45_46_51279
2966,882.0,9_45_46_51296
2967,883.0,9_45_46_51313
2968,884.0,9_45_46_51330
2969,885.0,9_45_46_51346
2970,886.0,9_45_46_51363
2971,887.0,9_45_46_51379
2972,888.0,9_45_46_51396
2973,889.0,9_45_46_51413
2974,890.0,9_45_46_51430
2975,891.0,9_45_46_51447
2976,892.0,9_45_46_51463
2977,893.0,9_45_46_51479
2978,894.0,9_45_46_51496
2979,895.0,9_45_46_51513
2980,896.0,9_45_46_51530
2981,897.0,9_45_46_51547
2982,898.0,9_45_46_51563
2983,899.0,9_45_46_51580
2984,900.0,9_45_46_51596
2985,901.0,9_45_46_51613
2986,902.0,9_45_46_51629
2987,903.0,9_45_46_51646
2988,904.0,9_45_46_51663
2989,905.0,9_45_46_51680
2990,906.0,9_45_46_51697
2991,907.0,9_45_46_51713
2992,908.0,9_45_46_51730
2993,909.0,9_45_46_51746
2994,910.0,9_45_47_51763
2995,911.0,9_45_47_51780
2996,912.0,9_45_47_51797
2997,913.0,9_45_47_51813
2998,914.0,9_45_47_51830
2999,915.0,9_45_47_51847
3000,916.0,9_45_47_51863
3001,917.0,9_45_47_51880
3002,918.0,9_45_47_51896
3003,919.0,9_45_47_51913
3004,920.0,9_45_47_51930
3005,921.0,9_45_47_51946
3006,922.0,9_45_47_51963
3007,923.0,9_45_47_51979
3008,924.0,9_45_47_51996
3009,925.0,9_45_47_52013
3010,926.0,9_45_47_52030
3011,927.0,9_45_47_52046
3012,928.0,9_45_47_52063
3013,929.0,9_45_47_52079
3014,930.0,9_45_47_52096
3015,931.0,9_45_47_52113
3016,932.0,9_45_47_52130
3017,933.0,9_45_47_52146
3018,934.0,9_45_47_52163
3019,935.0,9_45_47_52180
3020,936.0,9_45_47_52197
3021,937.0,9_45_47_52213
3022,938.0,9_45_47_52230
3023,939.0,9_45_47_52246
3024,940.0,9_45_47_52263
3025,941.0,9_45_47_52280
3026,942.0,9_45_47_52296
3027,943.0,9_45_47_52313
3028,944.0,9_45_47_52330
3029,945.0,9_45_47_52346
3030,946.0,9_45_47_52363
3031,947.0,9_45_47_52380
3032,948.0,9_45_47_52396
3033,949.0,9_45_47_52413
3034,950.0,9_45_47_52429
3035,951.0,9_45_47_52447
3036,952.0,9_45_47_52463
3037,953.0,9_45_47_52480
3038,954.0,9_45_47_52497
3039,955.0,9_45_47_52513
3040,956.0,9_45_47_52529
3041,957.0,9_45_47_52547
3042,958.0,9_45_47_52563
3043,959.0,9_45_47_52580
3044,960.0,9_45_47_52597
3045,961.0,9_45_47_52613
3046,962.0,9_45_47_52630
3047,963.0,9_45_47_52646
3048,964.0,9_45_47_52664
3049,965.0,9_45_47_52680
3050,966.0,9_45_47_52696
3051,967.0,9_45_47_52713
3052,968.0,9_45_47_52729
3053,969.0,9_45_48_52747
3054,970.0,9_45_48_52763
3055,971.0,9_45_48_52780
3056,972.0,9_45_48_52797
3057,973.0,9_45_48_52813
3058,974.0,9_45_48_52830
3059,975.0,9_45_48_52846
3060,976.0,9_45_48_52863
3061,977.0,9_45_48_52880
3062,978.0,9_45_48_52896
3063,979.0,9_45_48_52913
3064,980.0,9_45_48_52930
3065,981.0,9_45_48_52946
3066,982.0,9_45_48_52963
3067,983.0,9_45_48_52980
3068,984.0,9_45_48_52996
3069,985.0,9_45_48_53013
3070,986.0,9_45_48_53030
3071,987.0,9_45_48_53047
3072,988.0,9_45_48_53063
3073,989.0,9_45_48_53080
3074,990.0,9_45_48_53097
3075,991.0,9_45_48_53113
3076,992.0,9_45_48_53130
3077,993.0,9_45_48_53146
3078,994.0,9_45_48_53163
3079,995.0,9_45_48_53180
3080,996.0,9_45_48_53196
3081,997.0,9_45_48_53213
3082,998.0,9_45_48_53230
3083,999.0,9_45_48_53247
3084,1000.0,9_45_48_53263
3085,1001.0,9_45_48_53280
3086,1002.0,9_45_48_53297
3087,1003.0,9_45_48_53313
3088,1004.0,9_45_48_53330
3089,1005.0,9_45_48_53346
3090,1006.0,9_45_48_53363
3091,1007.0,9_45_48_53380
3092,1008.0,9_45_48_53396
3093,1009.0,9_45_48_53413
3094,1010.0,9_45_48_53429
3095,1011.0,9_45_48_53446
3096,1012.0,9_45_48_53463
3097,1013.0,9_45_48_53479
3098,1014.0,9_45_48_53496
3099,1015.0,9_45_48_53513
3100,1016.0,9_45_48_53529
3101,1017.0,9_45_48_53546
3102,1018.0,9_45_48_53563
3103,1019.0,9_45_48_53580
3104,1020.0,9_45_48_53597
3105,1021.0,9_45_48_53613
3106,1022.0,9_45_48_53630
3107,1023.0,9_45_48_53647
3108,0.0,9_45_48_53663
3109,1.0,9_45_48_53680
3110,2.0,9_45_48_53696
3111,3.0,9_45_48_53713
3112,4.0,9_45_48_53729
3113,5.0,9_45_48_53746
3114,6.0,9_45_49_53763
3115,7.0,9_45_49_53780
3116,8.0,9_45_49_53796
3117,9.0,9_45_49_53813
3118,10.0,9_45_49_53830
3119,11.0,9_45_49_53846
3120,12.0,9_45_49_53863
3121,13.0,9_45_49_53880
3122,14.0,9_45_49_53897
3123,15.0,9_45_49_53913
3124,16.0,9_45_49_53930
3125,17.0,9_45_49_53947
3126,18.0,9_45_49_53963
3127,19.0,9_45_49_53980
3128,20.0,9_45_49_53997
3129,21.0,9_45_49_54013
3130,22.0,9_45_49_54030
3131,23.0,9_45_49_54046
3132,24.0,9_45_49_54063
3133,25.0,9_45_49_54080
3134,26.0,9_45_49_54097
3135,27.0,9_45_49_54113
3136,28.0,9_45_49_54130
3137,29.0,9_45_49_54147
3138,30.0,9_45_49_54163
3139,31.0,9_45_49_54180
3140,32.0,9_45_49_54196
3141,33.0,9_45_49_54213
3142,34.0,9_45_49_54229
3143,35.0,9_45_49_54246
3144,36.0,9_45_49_54263
3145,37.0,9_45_49_54280
3146,38.0,9_45_49_54297
3147,39.0,9_45_49_54313
