position,GSR_Reading,Time_Stamp
0,NaN,9_28_27_1880
1,503.0,9_28_27_1881
2,502.0,9_28_27_1884
3,502.0,9_28_27_1884
4,502.0,9_28_27_1886
5,502.0,9_28_27_1890
6,502.0,9_28_27_1890
7,502.0,9_28_27_1894
8,502.0,9_28_27_1898
9,502.0,9_28_27_1899
10,503.0,9_28_27_1902
11,502.0,9_28_27_1903
12,502.0,9_28_27_1906
13,502.0,9_28_27_1910
14,502.0,9_28_27_1911
15,502.0,9_28_27_1915
16,503.0,9_28_27_1919
17,504.0,9_28_27_1919
18,503.0,9_28_27_1922
19,504.0,9_28_27_1926
20,503.0,9_28_27_1927
21,502.0,9_28_27_1931
22,502.0,9_28_27_1932
23,502.0,9_28_27_1934
24,503.0,9_28_27_1939
25,503.0,9_28_27_1939
26,503.0,9_28_27_1943
27,503.0,9_28_27_1948
28,502.0,9_28_27_1948
29,502.0,9_28_27_1951
30,502.0,9_28_27_1955
31,502.0,9_28_27_1956
32,503.0,9_28_27_1960
33,503.0,9_28_27_1960
34,503.0,9_28_27_1963
35,502.0,9_28_27_1968
36,502.0,9_28_27_1968
37,502.0,9_28_27_1971
38,502.0,9_28_27_1976
39,503.0,9_28_27_1977
40,503.0,9_28_27_1980
41,503.0,9_28_27_1984
42,503.0,9_28_27_1984
43,502.0,9_28_27_1988
44,502.0,9_28_27_1989
45,501.0,9_28_27_1992
46,502.0,9_28_27_1996
47,502.0,9_28_27_1996
48,503.0,9_28_27_2000
49,503.0,9_28_27_2004
50,502.0,9_28_27_2004
51,502.0,9_28_27_2008
52,501.0,9_28_27_2012
53,502.0,9_28_27_2013
54,502.0,9_28_27_2016
55,503.0,9_28_27_2017
56,503.0,9_28_27_2021
57,502.0,9_28_27_2025
58,503.0,9_28_27_2025
59,502.0,9_28_27_2029
60,501.0,9_28_27_2033
61,502.0,9_28_27_2034
62,502.0,9_28_27_2038
63,503.0,9_28_27_2041
64,503.0,9_28_27_2042
65,503.0,9_28_27_2045
66,502.0,9_28_27_2046
67,502.0,9_28_27_2050
68,501.0,9_28_27_2054
69,502.0,9_28_27_2054
70,502.0,9_28_27_2058
71,503.0,9_28_27_2062
72,503.0,9_28_27_2062
73,502.0,9_28_27_2065
74,502.0,9_28_27_2069
75,502.0,9_28_27_2070
76,501.0,9_28_27_2074
77,502.0,9_28_27_2074
78,503.0,9_28_27_2078
79,503.0,9_28_27_2082
80,503.0,9_28_27_2082
81,503.0,9_28_27_2086
82,502.0,9_28_27_2090
83,502.0,9_28_27_2091
84,501.0,9_28_27_2095
85,502.0,9_28_27_2095
86,502.0,9_28_27_2098
87,503.0,9_28_27_2103
88,502.0,9_28_27_2103
89,502.0,9_28_27_2106
90,501.0,9_28_27_2111
91,502.0,9_28_27_2112
92,502.0,9_28_27_2115
93,502.0,9_28_27_2119
94,503.0,9_28_27_2120
95,503.0,9_28_27_2123
96,503.0,9_28_27_2123
97,502.0,9_28_27_2127
98,501.0,9_28_27_2131
99,501.0,9_28_27_2132
100,502.0,9_28_27_2136
101,503.0,9_28_27_2140
102,503.0,9_28_27_2140
103,502.0,9_28_27_2144
104,502.0,9_28_27_2147
105,502.0,9_28_27_2148
106,502.0,9_28_27_2152
107,502.0,9_28_27_2153
108,502.0,9_28_27_2156
109,502.0,9_28_27_2160
110,503.0,9_28_27_2161
111,503.0,9_28_27_2164
112,502.0,9_28_27_2169
113,501.0,9_28_27_2169
114,501.0,9_28_27_2172
115,501.0,9_28_27_2177
116,502.0,9_28_27_2178
117,502.0,9_28_27_2180
118,502.0,9_28_27_2181
119,502.0,9_28_27_2184
120,502.0,9_28_27_2188
121,501.0,9_28_27_2189
122,501.0,9_28_27_2193
123,501.0,9_28_27_2196
124,503.0,9_28_27_2197
125,503.0,9_28_27_2201
126,503.0,9_28_27_2204
127,503.0,9_28_27_2205
128,501.0,9_28_27_2209
129,501.0,9_28_27_2209
130,502.0,9_28_27_2213
131,502.0,9_28_28_2217
132,502.0,9_28_28_2218
133,503.0,9_28_28_2221
134,502.0,9_28_28_2225
135,502.0,9_28_28_2225
136,501.0,9_28_28_2229
137,501.0,9_28_28_2234
138,502.0,9_28_28_2234
139,502.0,9_28_28_2238
140,503.0,9_28_28_2239
141,503.0,9_28_28_2242
142,502.0,9_28_28_2246
143,502.0,9_28_28_2246
144,501.0,9_28_28_2250
145,501.0,9_28_28_2254
146,502.0,9_28_28_2254
147,503.0,9_28_28_2258
148,503.0,9_28_28_2258
149,502.0,9_28_28_2262
150,503.0,9_28_28_2266
151,501.0,9_28_28_2266
152,501.0,9_28_28_2270
153,502.0,9_28_28_2275
154,502.0,9_28_28_2276
155,503.0,9_28_28_2278
156,503.0,9_28_28_2283
157,503.0,9_28_28_2284
158,502.0,9_28_28_2287
159,501.0,9_28_28_2287
160,501.0,9_28_28_2291
161,501.0,9_28_28_2295
162,503.0,9_28_28_2295
163,502.0,9_28_28_2299
164,503.0,9_28_28_2303
165,503.0,9_28_28_2303
166,502.0,9_28_28_2307
167,501.0,9_28_28_2312
168,501.0,9_28_28_2313
169,502.0,9_28_28_2316
170,502.0,9_28_28_2316
171,503.0,9_28_28_2320
172,502.0,9_28_28_2324
173,502.0,9_28_28_2324
174,502.0,9_28_28_2328
175,501.0,9_28_28_2332
176,501.0,9_28_28_2332
177,502.0,9_28_28_2336
178,502.0,9_28_28_2340
179,503.0,9_28_28_2341
180,503.0,9_28_28_2345
181,502.0,9_28_28_2345
182,501.0,9_28_28_2349
183,501.0,9_28_28_2352
184,501.0,9_28_28_2353
185,502.0,9_28_28_2357
186,502.0,9_28_28_2361
187,503.0,9_28_28_2361
188,502.0,9_28_28_2365
189,502.0,9_28_28_2369
190,501.0,9_28_28_2369
191,502.0,9_28_28_2373
192,502.0,9_28_28_2374
193,503.0,9_28_28_2377
194,503.0,9_28_28_2381
195,502.0,9_28_28_2382
196,503.0,9_28_28_2386
197,502.0,9_28_28_2390
198,501.0,9_28_28_2390
199,501.0,9_28_28_2393
200,501.0,9_28_28_2397
201,503.0,9_28_28_2398
202,502.0,9_28_28_2401
203,503.0,9_28_28_2402
204,502.0,9_28_28_2406
205,501.0,9_28_28_2410
206,501.0,9_28_28_2411
207,501.0,9_28_28_2414
208,502.0,9_28_28_2418
209,503.0,9_28_28_2419
210,503.0,9_28_28_2421
211,503.0,9_28_28_2422
212,502.0,9_28_28_2426
213,501.0,9_28_28_2430
214,501.0,9_28_28_2431
215,502.0,9_28_28_2435
216,502.0,9_28_28_2439
217,502.0,9_28_28_2439
218,503.0,9_28_28_2443
219,502.0,9_28_28_2447
220,502.0,9_28_28_2447
221,501.0,9_28_28_2450
222,502.0,9_28_28_2450
223,502.0,9_28_28_2455
224,503.0,9_28_28_2459
225,503.0,9_28_28_2460
226,503.0,9_28_28_2464
227,503.0,9_28_28_2468
228,501.0,9_28_28_2468
229,501.0,9_28_28_2471
230,502.0,9_28_28_2475
231,502.0,9_28_28_2476
232,503.0,9_28_28_2480
233,503.0,9_28_28_2480
234,503.0,9_28_28_2484
235,502.0,9_28_28_2488
236,501.0,9_28_28_2489
237,502.0,9_28_28_2492
238,502.0,9_28_28_2496
239,502.0,9_28_28_2496
240,503.0,9_28_28_2500
241,502.0,9_28_28_2504
242,503.0,9_28_28_2504
243,502.0,9_28_28_2508
244,501.0,9_28_28_2509
245,501.0,9_28_28_2512
246,501.0,9_28_28_2516
247,502.0,9_28_28_2517
248,503.0,9_28_28_2521
249,502.0,9_28_28_2525
250,502.0,9_28_28_2525
251,502.0,9_28_28_2528
252,501.0,9_28_28_2532
253,501.0,9_28_28_2533
254,502.0,9_28_28_2537
255,503.0,9_28_28_2538
256,503.0,9_28_28_2541
257,502.0,9_28_28_2546
258,502.0,9_28_28_2546
259,501.0,9_28_28_2555
260,501.0,9_28_28_2555
261,502.0,9_28_28_2556
262,502.0,9_28_28_2558
263,502.0,9_28_28_2561
264,503.0,9_28_28_2562
265,503.0,9_28_28_2565
266,502.0,9_28_28_2566
267,501.0,9_28_28_2569
268,501.0,9_28_28_2573
269,501.0,9_28_28_2574
270,502.0,9_28_28_2578
271,502.0,9_28_28_2582
272,503.0,9_28_28_2583
273,502.0,9_28_28_2586
274,502.0,9_28_28_2590
275,501.0,9_28_28_2590
276,501.0,9_28_28_2594
277,502.0,9_28_28_2594
278,503.0,9_28_28_2598
279,503.0,9_28_28_2602
280,503.0,9_28_28_2602
281,502.0,9_28_28_2606
282,502.0,9_28_28_2610
283,501.0,9_28_28_2611
284,502.0,9_28_28_2614
285,502.0,9_28_28_2615
286,502.0,9_28_28_2619
287,503.0,9_28_28_2623
288,503.0,9_28_28_2624
289,502.0,9_28_28_2627
290,501.0,9_28_28_2631
291,501.0,9_28_28_2632
292,502.0,9_28_28_2635
293,503.0,9_28_28_2639
294,503.0,9_28_28_2640
295,503.0,9_28_28_2643
296,503.0,9_28_28_2644
297,502.0,9_28_28_2648
298,501.0,9_28_28_2652
299,502.0,9_28_28_2652
300,502.0,9_28_28_2655
301,502.0,9_28_28_2660
302,503.0,9_28_28_2661
303,502.0,9_28_28_2663
304,502.0,9_28_28_2668
305,502.0,9_28_28_2669
306,501.0,9_28_28_2671
307,501.0,9_28_28_2672
308,502.0,9_28_28_2675
309,503.0,9_28_28_2680
310,502.0,9_28_28_2681
311,502.0,9_28_28_2684
312,502.0,9_28_28_2689
313,501.0,9_28_28_2689
314,501.0,9_28_28_2692
315,502.0,9_28_28_2697
316,502.0,9_28_28_2697
317,502.0,9_28_28_2700
318,502.0,9_28_28_2700
319,503.0,9_28_28_2704
320,502.0,9_28_28_2708
321,501.0,9_28_28_2709
322,501.0,9_28_28_2713
323,502.0,9_28_28_2717
324,502.0,9_28_28_2717
325,503.0,9_28_28_2721
326,502.0,9_28_28_2725
327,502.0,9_28_28_2725
328,502.0,9_28_28_2729
329,501.0,9_28_28_2729
330,502.0,9_28_28_2733
331,502.0,9_28_28_2737
332,503.0,9_28_28_2738
333,503.0,9_28_28_2742
334,502.0,9_28_28_2746
335,502.0,9_28_28_2746
336,501.0,9_28_28_2750
337,502.0,9_28_28_2754
338,501.0,9_28_28_2754
339,502.0,9_28_28_2758
340,502.0,9_28_28_2759
341,503.0,9_28_28_2762
342,502.0,9_28_28_2766
343,501.0,9_28_28_2767
344,501.0,9_28_28_2770
345,501.0,9_28_28_2775
346,502.0,9_28_28_2776
347,503.0,9_28_28_2779
348,502.0,9_28_28_2779
349,502.0,9_28_28_2782
350,502.0,9_28_28_2787
351,501.0,9_28_28_2788
352,501.0,9_28_28_2791
353,501.0,9_28_28_2795
354,502.0,9_28_28_2795
355,503.0,9_28_28_2799
356,503.0,9_28_28_2803
357,502.0,9_28_28_2803
358,503.0,9_28_28_2807
359,501.0,9_28_28_2808
360,501.0,9_28_28_2811
361,501.0,9_28_28_2817
362,502.0,9_28_28_2820
363,502.0,9_28_28_2822
364,502.0,9_28_28_2823
365,502.0,9_28_28_2824
366,502.0,9_28_28_2827
367,502.0,9_28_28_2831
368,502.0,9_28_28_2832
369,502.0,9_28_28_2836
370,502.0,9_28_28_2837
371,503.0,9_28_28_2840
372,503.0,9_28_28_2844
373,502.0,9_28_28_2844
374,501.0,9_28_28_2848
375,502.0,9_28_28_2852
376,501.0,9_28_28_2853
377,502.0,9_28_28_2857
378,503.0,9_28_28_2861
379,503.0,9_28_28_2861
380,503.0,9_28_28_2864
381,502.0,9_28_28_2865
382,501.0,9_28_28_2868
383,501.0,9_28_28_2872
384,501.0,9_28_28_2874
385,503.0,9_28_28_2877
386,502.0,9_28_28_2881
387,503.0,9_28_28_2881
388,502.0,9_28_28_2885
389,502.0,9_28_28_2889
390,501.0,9_28_28_2890
391,501.0,9_28_28_2893
392,502.0,9_28_28_2893
393,503.0,9_28_28_2897
394,503.0,9_28_28_2901
395,502.0,9_28_28_2901
396,502.0,9_28_28_2905
397,501.0,9_28_28_2910
398,501.0,9_28_28_2910
399,501.0,9_28_28_2914
400,502.0,9_28_28_2917
401,503.0,9_28_28_2918
402,503.0,9_28_28_2922
403,502.0,9_28_28_2922
404,503.0,9_28_28_2926
405,502.0,9_28_28_2930
406,501.0,9_28_28_2931
407,502.0,9_28_28_2934
408,502.0,9_28_28_2939
409,502.0,9_28_28_2939
410,502.0,9_28_28_2943
411,503.0,9_28_28_2947
412,502.0,9_28_28_2947
413,501.0,9_28_28_2950
414,501.0,9_28_28_2950
415,502.0,9_28_28_2954
416,502.0,9_28_28_2958
417,503.0,9_28_28_2959
418,503.0,9_28_28_2963
419,503.0,9_28_28_2967
420,502.0,9_28_28_2967
421,501.0,9_28_28_2971
422,501.0,9_28_28_2972
423,502.0,9_28_28_2977
424,503.0,9_28_28_2979
425,503.0,9_28_28_2979
426,502.0,9_28_28_2983
427,502.0,9_28_28_2987
428,502.0,9_28_28_2987
429,501.0,9_28_28_2991
430,502.0,9_28_28_2995
431,502.0,9_28_28_2996
432,503.0,9_28_28_3000
433,503.0,9_28_28_3000
434,502.0,9_28_28_3004
435,502.0,9_28_28_3008
436,501.0,9_28_28_3008
437,501.0,9_28_28_3012
438,501.0,9_28_28_3016
439,502.0,9_28_28_3017
440,503.0,9_28_28_3021
441,503.0,9_28_28_3024
442,502.0,9_28_28_3025
443,501.0,9_28_28_3028
444,501.0,9_28_28_3028
445,502.0,9_28_28_3032
446,502.0,9_28_28_3036
447,502.0,9_28_28_3037
448,502.0,9_28_28_3041
449,503.0,9_28_28_3045
450,502.0,9_28_28_3045
451,502.0,9_28_28_3049
452,501.0,9_28_28_3053
453,502.0,9_28_28_3054
454,503.0,9_28_28_3056
455,503.0,9_28_28_3057
456,503.0,9_28_28_3061
457,502.0,9_28_28_3065
458,503.0,9_28_28_3065
459,501.0,9_28_28_3069
460,501.0,9_28_28_3074
461,501.0,9_28_28_3074
462,502.0,9_28_28_3077
463,502.0,9_28_28_3081
464,503.0,9_28_28_3082
465,502.0,9_28_28_3085
466,501.0,9_28_28_3086
467,501.0,9_28_28_3090
468,501.0,9_28_28_3094
469,502.0,9_28_28_3095
470,502.0,9_28_28_3097
471,503.0,9_28_28_3101
472,503.0,9_28_28_3102
473,503.0,9_28_28_3106
474,501.0,9_28_28_3110
475,501.0,9_28_28_3111
476,502.0,9_28_28_3115
477,502.0,9_28_28_3115
478,502.0,9_28_28_3118
479,503.0,9_28_28_3122
480,502.0,9_28_28_3123
481,503.0,9_28_28_3127
482,501.0,9_28_28_3131
483,502.0,9_28_28_3131
484,502.0,9_28_28_3134
485,502.0,9_28_28_3135
486,503.0,9_28_28_3139
487,502.0,9_28_28_3145
488,502.0,9_28_28_3145
489,502.0,9_28_28_3147
490,501.0,9_28_28_3152
491,501.0,9_28_28_3152
492,501.0,9_28_28_3155
493,502.0,9_28_28_3159
494,503.0,9_28_28_3160
495,503.0,9_28_28_3164
496,502.0,9_28_28_3164
497,501.0,9_28_28_3167
498,501.0,9_28_28_3171
499,501.0,9_28_28_3172
500,502.0,9_28_28_3176
501,502.0,9_28_28_3180
502,503.0,9_28_28_3181
503,503.0,9_28_28_3184
504,502.0,9_28_28_3188
505,501.0,9_28_28_3189
506,502.0,9_28_28_3192
507,502.0,9_28_28_3193
508,502.0,9_28_28_3196
509,503.0,9_28_28_3201
510,503.0,9_28_28_3201
511,502.0,9_28_28_3204
512,502.0,9_28_28_3208
513,501.0,9_28_28_3209
514,502.0,9_28_28_3213
515,501.0,9_28_29_3217
516,502.0,9_28_29_3218
517,502.0,9_28_29_3220
518,503.0,9_28_29_3221
519,502.0,9_28_29_3225
520,502.0,9_28_29_3229
521,501.0,9_28_29_3230
522,501.0,9_28_29_3234
523,502.0,9_28_29_3238
524,502.0,9_28_29_3238
525,503.0,9_28_29_3241
526,503.0,9_28_29_3245
527,503.0,9_28_29_3245
528,502.0,9_28_29_3249
529,502.0,9_28_29_3250
530,501.0,9_28_29_3254
531,502.0,9_28_29_3258
532,503.0,9_28_29_3258
533,503.0,9_28_29_3261
534,503.0,9_28_29_3266
535,502.0,9_28_29_3267
536,501.0,9_28_29_3270
537,501.0,9_28_29_3274
538,502.0,9_28_29_3276
539,502.0,9_28_29_3279
540,502.0,9_28_29_3279
541,502.0,9_28_29_3282
542,502.0,9_28_29_3286
543,502.0,9_28_29_3287
544,502.0,9_28_29_3291
545,501.0,9_28_29_3295
546,502.0,9_28_29_3295
547,502.0,9_28_29_3298
548,502.0,9_28_29_3303
549,503.0,9_28_29_3304
550,503.0,9_28_29_3306
551,501.0,9_28_29_3307
552,501.0,9_28_29_3311
553,501.0,9_28_29_3315
554,502.0,9_28_29_3316
555,502.0,9_28_29_3319
556,502.0,9_28_29_3323
557,503.0,9_28_29_3323
558,502.0,9_28_29_3327
559,501.0,9_28_29_3328
560,501.0,9_28_29_3331
561,502.0,9_28_29_3336
562,502.0,9_28_29_3336
563,503.0,9_28_29_3339
564,503.0,9_28_29_3343
565,503.0,9_28_29_3344
566,502.0,9_28_29_3348
567,501.0,9_28_29_3352
568,502.0,9_28_29_3353
569,502.0,9_28_29_3356
570,502.0,9_28_29_3356
571,503.0,9_28_29_3360
572,503.0,9_28_29_3364
573,502.0,9_28_29_3365
574,501.0,9_28_29_3368
575,501.0,9_28_29_3372
576,501.0,9_28_29_3373
577,502.0,9_28_29_3377
578,503.0,9_28_29_3381
579,503.0,9_28_29_3382
580,503.0,9_28_29_3385
581,502.0,9_28_29_3385
582,501.0,9_28_29_3389
583,502.0,9_28_29_3393
584,502.0,9_28_29_3394
585,503.0,9_28_29_3397
586,503.0,9_28_29_3401
587,502.0,9_28_29_3401
588,503.0,9_28_29_3405
589,502.0,9_28_29_3409
590,501.0,9_28_29_3410
591,501.0,9_28_29_3413
592,502.0,9_28_29_3414
593,503.0,9_28_29_3418
594,503.0,9_28_29_3422
595,502.0,9_28_29_3422
596,502.0,9_28_29_3425
597,502.0,9_28_29_3429
598,502.0,9_28_29_3430
599,502.0,9_28_29_3434
600,502.0,9_28_29_3438
601,503.0,9_28_29_3438
602,503.0,9_28_29_3442
603,503.0,9_28_29_3443
604,502.0,9_28_29_3446
605,501.0,9_28_29_3451
606,502.0,9_28_29_3451
607,501.0,9_28_29_3454
608,502.0,9_28_29_3458
609,502.0,9_28_29_3459
610,503.0,9_28_29_3463
611,503.0,9_28_29_3467
612,502.0,9_28_29_3467
613,501.0,9_28_29_3471
614,502.0,9_28_29_3472
615,502.0,9_28_29_3474
616,503.0,9_28_29_3478
617,502.0,9_28_29_3479
618,503.0,9_28_29_3483
619,502.0,9_28_29_3487
620,502.0,9_28_29_3488
621,501.0,9_28_29_3491
622,501.0,9_28_29_3491
623,502.0,9_28_29_3495
624,503.0,9_28_29_3499
625,503.0,9_28_29_3500
626,502.0,9_28_29_3504
627,503.0,9_28_29_3508
628,501.0,9_28_29_3508
629,501.0,9_28_29_3511
630,502.0,9_28_29_3515
631,502.0,9_28_29_3516
632,503.0,9_28_29_3520
633,502.0,9_28_29_3521
634,502.0,9_28_29_3524
635,502.0,9_28_29_3528
636,502.0,9_28_29_3528
637,501.0,9_28_29_3532
638,502.0,9_28_29_3536
639,502.0,9_28_29_3537
640,502.0,9_28_29_3541
641,503.0,9_28_29_3545
642,503.0,9_28_29_3545
643,501.0,9_28_29_3581
644,502.0,9_28_29_3620
645,501.0,9_28_29_3620
646,502.0,9_28_29_3621
647,503.0,9_28_29_3621
648,502.0,9_28_29_3622
649,503.0,9_28_29_3622
650,503.0,9_28_29_3623
651,502.0,9_28_29_3623
652,501.0,9_28_29_3623
653,502.0,9_28_29_3624
654,502.0,9_28_29_3624
655,502.0,9_28_29_3631
656,503.0,9_28_29_3632
657,502.0,9_28_29_3633
658,502.0,9_28_29_3634
659,501.0,9_28_29_3634
660,501.0,9_28_29_3635
661,501.0,9_28_29_3636
662,502.0,9_28_29_3637
663,503.0,9_28_29_3637
664,503.0,9_28_29_3638
665,502.0,9_28_29_3638
666,501.0,9_28_29_3638
667,501.0,9_28_29_3639
668,502.0,9_28_29_3639
669,502.0,9_28_29_3640
670,502.0,9_28_29_3640
671,503.0,9_28_29_3640
672,503.0,9_28_29_3641
673,502.0,9_28_29_3641
674,501.0,9_28_29_3642
675,501.0,9_28_29_3642
676,501.0,9_28_29_3643
677,502.0,9_28_29_3643
678,503.0,9_28_29_3644
679,503.0,9_28_29_3644
680,502.0,9_28_29_3645
681,502.0,9_28_29_3646
682,501.0,9_28_29_3650
683,501.0,9_28_29_3651
684,501.0,9_28_29_3655
685,502.0,9_28_29_3659
686,502.0,9_28_29_3659
687,503.0,9_28_29_3663
688,502.0,9_28_29_3664
689,502.0,9_28_29_3667
690,501.0,9_28_29_3671
691,501.0,9_28_29_3672
692,502.0,9_28_29_3675
693,502.0,9_28_29_3679
694,503.0,9_28_29_3680
695,502.0,9_28_29_3684
696,502.0,9_28_29_3685
697,501.0,9_28_29_3688
698,502.0,9_28_29_3692
699,502.0,9_28_29_3692
700,502.0,9_28_29_3696
701,503.0,9_28_29_3700
702,502.0,9_28_29_3700
703,502.0,9_28_29_3704
704,503.0,9_28_29_3708
705,501.0,9_28_29_3709
706,501.0,9_28_29_3712
707,502.0,9_28_29_3713
708,502.0,9_28_29_3717
709,503.0,9_28_29_3721
710,503.0,9_28_29_3722
711,502.0,9_28_29_3724
712,502.0,9_28_29_3728
713,501.0,9_28_29_3729
714,501.0,9_28_29_3732
715,502.0,9_28_29_3736
716,503.0,9_28_29_3737
717,503.0,9_28_29_3741
718,502.0,9_28_29_3742
719,502.0,9_28_29_3745
720,501.0,9_28_29_3749
721,502.0,9_28_29_3750
722,501.0,9_28_29_3753
723,502.0,9_28_29_3757
724,503.0,9_28_29_3757
725,503.0,9_28_29_3761
726,502.0,9_28_29_3766
727,502.0,9_28_29_3766
728,501.0,9_28_29_3769
729,501.0,9_28_29_3770
730,501.0,9_28_29_3774
731,502.0,9_28_29_3778
732,503.0,9_28_29_3779
733,503.0,9_28_29_3782
734,503.0,9_28_29_3786
735,502.0,9_28_29_3787
736,501.0,9_28_29_3790
737,501.0,9_28_29_3794
738,502.0,9_28_29_3795
739,503.0,9_28_29_3798
740,502.0,9_28_29_3799
741,503.0,9_28_29_3803
742,502.0,9_28_29_3807
743,502.0,9_28_29_3808
744,501.0,9_28_29_3811
745,501.0,9_28_29_3815
746,502.0,9_28_29_3816
747,503.0,9_28_29_3819
748,503.0,9_28_29_3823
749,503.0,9_28_29_3824
750,502.0,9_28_29_3826
751,501.0,9_28_29_3827
752,501.0,9_28_29_3831
753,501.0,9_28_29_3835
754,503.0,9_28_29_3836
755,503.0,9_28_29_3839
756,502.0,9_28_29_3843
757,502.0,9_28_29_3844
758,502.0,9_28_29_3847
759,501.0,9_28_29_3848
760,501.0,9_28_29_3852
761,501.0,9_28_29_3856
762,502.0,9_28_29_3857
763,503.0,9_28_29_3860
764,502.0,9_28_29_3864
765,502.0,9_28_29_3864
766,501.0,9_28_29_3868
767,501.0,9_28_29_3872
768,502.0,9_28_29_3872
769,502.0,9_28_29_3877
770,502.0,9_28_29_3877
771,502.0,9_28_29_3880
772,503.0,9_28_29_3884
773,502.0,9_28_29_3885
774,501.0,9_28_29_3889
775,501.0,9_28_29_3893
776,502.0,9_28_29_3893
777,502.0,9_28_29_3896
778,502.0,9_28_29_3900
779,502.0,9_28_29_3901
780,502.0,9_28_29_3905
781,502.0,9_28_29_3905
782,501.0,9_28_29_3909
783,501.0,9_28_29_3913
784,502.0,9_28_29_3914
785,502.0,9_28_29_3917
786,502.0,9_28_29_3921
787,502.0,9_28_29_3922
788,502.0,9_28_29_3925
789,501.0,9_28_29_3930
790,501.0,9_28_29_3931
791,502.0,9_28_29_3934
792,502.0,9_28_29_3934
793,502.0,9_28_29_3938
794,503.0,9_28_29_3942
795,502.0,9_28_29_3943
796,503.0,9_28_29_3946
797,501.0,9_28_29_3950
798,501.0,9_28_29_3951
799,501.0,9_28_29_3953
800,502.0,9_28_29_3959
801,503.0,9_28_29_3959
802,503.0,9_28_29_3962
803,502.0,9_28_29_3963
804,502.0,9_28_29_3967
805,501.0,9_28_29_3970
806,501.0,9_28_29_3972
807,501.0,9_28_29_3974
808,502.0,9_28_29_3978
809,502.0,9_28_29_3979
810,502.0,9_28_29_3982
811,502.0,9_28_29_3986
812,501.0,9_28_29_3987
813,502.0,9_28_29_3991
814,501.0,9_28_29_3992
815,502.0,9_28_29_3995
816,502.0,9_28_29_3999
817,502.0,9_28_29_3999
818,502.0,9_28_29_4003
819,502.0,9_28_29_4007
820,502.0,9_28_29_4009
821,501.0,9_28_29_4012
822,501.0,9_28_29_4013
823,502.0,9_28_29_4016
824,503.0,9_28_29_4020
825,503.0,9_28_29_4020
826,503.0,9_28_29_4024
827,502.0,9_28_29_4028
828,501.0,9_28_29_4029
829,502.0,9_28_29_4031
830,502.0,9_28_29_4035
831,502.0,9_28_29_4036
832,503.0,9_28_29_4040
833,503.0,9_28_29_4041
834,502.0,9_28_29_4044
835,501.0,9_28_29_4048
836,501.0,9_28_29_4049
837,501.0,9_28_29_4053
838,502.0,9_28_29_4057
839,502.0,9_28_29_4057
840,502.0,9_28_29_4060
841,502.0,9_28_29_4064
842,502.0,9_28_29_4065
843,501.0,9_28_29_4069
844,501.0,9_28_29_4070
845,501.0,9_28_29_4072
846,502.0,9_28_29_4077
847,503.0,9_28_29_4078
848,503.0,9_28_29_4081
849,503.0,9_28_29_4084
850,502.0,9_28_29_4085
851,501.0,9_28_29_4089
852,501.0,9_28_29_4093
853,501.0,9_28_29_4094
854,503.0,9_28_29_4097
855,503.0,9_28_29_4098
856,503.0,9_28_29_4102
857,502.0,9_28_29_4106
858,502.0,9_28_29_4107
859,501.0,9_28_29_4109
860,502.0,9_28_29_4113
861,501.0,9_28_29_4114
862,503.0,9_28_29_4118
863,502.0,9_28_29_4122
864,502.0,9_28_29_4123
865,502.0,9_28_29_4126
866,502.0,9_28_29_4127
867,501.0,9_28_29_4130
868,502.0,9_28_29_4134
869,502.0,9_28_29_4135
870,503.0,9_28_29_4138
871,503.0,9_28_29_4142
872,503.0,9_28_29_4143
873,503.0,9_28_29_4147
874,501.0,9_28_29_4151
875,501.0,9_28_29_4152
876,501.0,9_28_29_4155
877,502.0,9_28_29_4155
878,503.0,9_28_29_4159
879,503.0,9_28_29_4163
880,502.0,9_28_29_4164
881,501.0,9_28_29_4167
882,501.0,9_28_29_4171
883,502.0,9_28_29_4172
884,502.0,9_28_29_4175
885,503.0,9_28_29_4179
886,503.0,9_28_29_4180
887,502.0,9_28_29_4183
888,502.0,9_28_29_4184
889,501.0,9_28_29_4188
890,501.0,9_28_29_4191
891,501.0,9_28_29_4192
892,502.0,9_28_29_4196
893,502.0,9_28_29_4200
894,502.0,9_28_29_4201
895,503.0,9_28_29_4204
896,502.0,9_28_29_4205
897,501.0,9_28_29_4208
898,501.0,9_28_29_4212
899,501.0,9_28_29_4213
900,502.0,9_28_30_4217
901,502.0,9_28_30_4221
902,503.0,9_28_30_4222
903,502.0,9_28_30_4224
904,502.0,9_28_30_4229
905,501.0,9_28_30_4229
906,501.0,9_28_30_4237
907,502.0,9_28_30_4238
908,503.0,9_28_30_4238
909,503.0,9_28_30_4241
910,503.0,9_28_30_4242
911,503.0,9_28_30_4244
912,501.0,9_28_30_4248
913,501.0,9_28_30_4249
914,501.0,9_28_30_4253
915,502.0,9_28_30_4257
916,503.0,9_28_30_4258
917,502.0,9_28_30_4261
918,503.0,9_28_30_4261
919,502.0,9_28_30_4265
920,501.0,9_28_30_4270
921,501.0,9_28_30_4271
922,501.0,9_28_30_4273
923,503.0,9_28_30_4278
924,503.0,9_28_30_4278
925,502.0,9_28_30_4281
926,503.0,9_28_30_4286
927,503.0,9_28_30_4287
928,501.0,9_28_30_4290
929,501.0,9_28_30_4290
930,502.0,9_28_30_4294
931,502.0,9_28_30_4298
932,502.0,9_28_30_4299
933,503.0,9_28_30_4302
934,502.0,9_28_30_4306
935,502.0,9_28_30_4307
936,501.0,9_28_30_4311
937,501.0,9_28_30_4315
938,502.0,9_28_30_4317
939,503.0,9_28_30_4318
940,503.0,9_28_30_4319
941,503.0,9_28_30_4323
942,502.0,9_28_30_4326
943,502.0,9_28_30_4327
944,502.0,9_28_30_4331
945,501.0,9_28_30_4334
946,502.0,9_28_30_4335
947,503.0,9_28_30_4339
948,503.0,9_28_30_4343
949,502.0,9_28_30_4344
950,502.0,9_28_30_4347
951,501.0,9_28_30_4348
952,501.0,9_28_30_4352
953,501.0,9_28_30_4355
954,503.0,9_28_30_4356
955,502.0,9_28_30_4360
956,502.0,9_28_30_4363
957,503.0,9_28_30_4364
958,502.0,9_28_30_4368
959,501.0,9_28_30_4369
960,502.0,9_28_30_4372
961,502.0,9_28_30_4376
962,503.0,9_28_30_4377
963,503.0,9_28_30_4380
964,503.0,9_28_30_4384
965,502.0,9_28_30_4385
966,501.0,9_28_30_4388
967,501.0,9_28_30_4392
968,501.0,9_28_30_4393
969,502.0,9_28_30_4397
970,502.0,9_28_30_4397
971,502.0,9_28_30_4400
972,503.0,9_28_30_4404
973,502.0,9_28_30_4405
974,501.0,9_28_30_4409
975,501.0,9_28_30_4412
976,502.0,9_28_30_4413
977,502.0,9_28_30_4417
978,503.0,9_28_30_4420
979,503.0,9_28_30_4422
980,503.0,9_28_30_4426
981,502.0,9_28_30_4426
982,501.0,9_28_30_4429
983,502.0,9_28_30_4433
984,502.0,9_28_30_4434
985,503.0,9_28_30_4437
986,503.0,9_28_30_4441
987,503.0,9_28_30_4442
988,502.0,9_28_30_4445
989,501.0,9_28_30_4449
990,501.0,9_28_30_4450
991,502.0,9_28_30_4454
992,502.0,9_28_30_4455
993,502.0,9_28_30_4458
994,502.0,9_28_30_4462
995,503.0,9_28_30_4463
996,502.0,9_28_30_4466
997,501.0,9_28_30_4470
998,501.0,9_28_30_4471
999,501.0,9_28_30_4474
1000,503.0,9_28_30_4478
1001,503.0,9_28_30_4479
1002,502.0,9_28_30_4483
1003,503.0,9_28_30_4485
1004,501.0,9_28_30_4486
1005,501.0,9_28_30_4490
1006,501.0,9_28_30_4491
1007,502.0,9_28_30_4494
1008,503.0,9_28_30_4506
1009,502.0,9_28_30_4507
1010,502.0,9_28_30_4507
1011,502.0,9_28_30_4508
1012,502.0,9_28_30_4508
1013,501.0,9_28_30_4511
1014,501.0,9_28_30_4512
1015,502.0,9_28_30_4515
1016,503.0,9_28_30_4519
1017,503.0,9_28_30_4520
1018,503.0,9_28_30_4523
1019,502.0,9_28_30_4527
1020,501.0,9_28_30_4528
1021,501.0,9_28_30_4531
1022,502.0,9_28_30_4536
1023,502.0,9_28_30_4537
1024,502.0,9_28_30_4540
1025,502.0,9_28_30_4541
1026,502.0,9_28_30_4544
1027,502.0,9_28_30_4548
1028,501.0,9_28_30_4549
1029,501.0,9_28_30_4552
1030,502.0,9_28_30_4556
1031,503.0,9_28_30_4557
1032,502.0,9_28_30_4560
1033,502.0,9_28_30_4561
1034,502.0,9_28_30_4565
1035,502.0,9_28_30_4568
1036,502.0,9_28_30_4569
1037,501.0,9_28_30_4573
1038,503.0,9_28_30_4576
1039,502.0,9_28_30_4577
1040,502.0,9_28_30_4580
1041,503.0,9_28_30_4584
1042,502.0,9_28_30_4585
1043,501.0,9_28_30_4589
1044,501.0,9_28_30_4590
1045,501.0,9_28_30_4593
1046,502.0,9_28_30_4597
1047,502.0,9_28_30_4598
1048,502.0,9_28_30_4601
1049,502.0,9_28_30_4605
1050,502.0,9_28_30_4606
1051,501.0,9_28_30_4609
1052,501.0,9_28_30_4613
1053,501.0,9_28_30_4615
1054,502.0,9_28_30_4618
1055,502.0,9_28_30_4619
1056,503.0,9_28_30_4621
1057,502.0,9_28_30_4626
1058,501.0,9_28_30_4627
1059,502.0,9_28_30_4630
1060,501.0,9_28_30_4634
1061,502.0,9_28_30_4635
1062,503.0,9_28_30_4638
1063,502.0,9_28_30_4642
1064,503.0,9_28_30_4643
1065,503.0,9_28_30_4646
1066,501.0,9_28_30_4647
1067,501.0,9_28_30_4650
1068,502.0,9_28_30_4655
1069,502.0,9_28_30_4656
1070,503.0,9_28_30_4659
1071,503.0,9_28_30_4662
1072,503.0,9_28_30_4663
1073,502.0,9_28_30_4666
1074,501.0,9_28_30_4671
1075,501.0,9_28_30_4672
1076,502.0,9_28_30_4675
1077,503.0,9_28_30_4676
1078,503.0,9_28_30_4679
1079,502.0,9_28_30_4683
1080,503.0,9_28_30_4684
1081,501.0,9_28_30_4687
1082,501.0,9_28_30_4691
1083,502.0,9_28_30_4692
1084,502.0,9_28_30_4696
1085,503.0,9_28_30_4700
1086,503.0,9_28_30_4701
1087,503.0,9_28_30_4703
1088,502.0,9_28_30_4704
1089,502.0,9_28_30_4708
1090,501.0,9_28_30_4711
1091,502.0,9_28_30_4712
1092,502.0,9_28_30_4716
1093,502.0,9_28_30_4720
1094,502.0,9_28_30_4721
1095,502.0,9_28_30_4724
1096,502.0,9_28_30_4725
1097,501.0,9_28_30_4729
1098,502.0,9_28_30_4732
1099,502.0,9_28_30_4733
1100,502.0,9_28_30_4736
1101,503.0,9_28_30_4741
1102,503.0,9_28_30_4742
1103,502.0,9_28_30_4744
1104,501.0,9_28_30_4749
1105,501.0,9_28_30_4750
1106,501.0,9_28_30_4753
1107,502.0,9_28_30_4757
1108,502.0,9_28_30_4758
1109,503.0,9_28_30_4761
1110,503.0,9_28_30_4762
1111,502.0,9_28_30_4765
1112,501.0,9_28_30_4769
1113,501.0,9_28_30_4771
1114,502.0,9_28_30_4773
1115,502.0,9_28_30_4777
1116,502.0,9_28_30_4777
1117,502.0,9_28_30_4781
1118,502.0,9_28_30_4782
1119,502.0,9_28_30_4785
1120,501.0,9_28_30_4789
1121,501.0,9_28_30_4790
1122,502.0,9_28_30_4793
1123,503.0,9_28_30_4797
1124,503.0,9_28_30_4798
1125,502.0,9_28_30_4802
1126,502.0,9_28_30_4806
1127,502.0,9_28_30_4807
1128,501.0,9_28_30_4810
1129,501.0,9_28_30_4811
1130,502.0,9_28_30_4814
1131,503.0,9_28_30_4819
1132,503.0,9_28_30_4819
1133,503.0,9_28_30_4823
1134,502.0,9_28_30_4827
1135,501.0,9_28_30_4827
1136,501.0,9_28_30_4830
1137,501.0,9_28_30_4835
1138,502.0,9_28_30_4836
1139,503.0,9_28_30_4839
1140,502.0,9_28_30_4840
1141,502.0,9_28_30_4843
1142,502.0,9_28_30_4847
1143,502.0,9_28_30_4847
1144,501.0,9_28_30_4851
1145,502.0,9_28_30_4856
1146,502.0,9_28_30_4857
1147,503.0,9_28_30_4859
1148,502.0,9_28_30_4863
1149,503.0,9_28_30_4864
1150,502.0,9_28_30_4867
1151,501.0,9_28_30_4868
1152,501.0,9_28_30_4872
1153,502.0,9_28_30_4876
1154,503.0,9_28_30_4877
1155,503.0,9_28_30_4880
1156,502.0,9_28_30_4884
1157,503.0,9_28_30_4885
1158,502.0,9_28_30_4888
1159,501.0,9_28_30_4892
1160,502.0,9_28_30_4893
1161,502.0,9_28_30_4896
1162,503.0,9_28_30_4897
1163,502.0,9_28_30_4900
1164,502.0,9_28_30_4904
1165,503.0,9_28_30_4905
1166,502.0,9_28_30_4908
1167,501.0,9_28_30_4912
1168,502.0,9_28_30_4913
1169,502.0,9_28_30_4916
1170,502.0,9_28_30_4917
1171,502.0,9_28_30_4921
1172,503.0,9_28_30_4925
1173,502.0,9_28_30_4928
1174,501.0,9_28_30_4929
1175,501.0,9_28_30_4933
1176,502.0,9_28_30_4934
1177,502.0,9_28_30_4937
1178,503.0,9_28_30_4942
1179,503.0,9_28_30_4943
1180,503.0,9_28_30_4945
1181,501.0,9_28_30_4946
1182,501.0,9_28_30_4949
1183,501.0,9_28_30_4953
1184,502.0,9_28_30_4954
1185,503.0,9_28_30_4957
1186,502.0,9_28_30_4962
1187,503.0,9_28_30_4963
1188,502.0,9_28_30_4972
1189,502.0,9_28_30_4973
1190,501.0,9_28_30_4974
1191,502.0,9_28_30_4975
1192,502.0,9_28_30_4977
1193,503.0,9_28_30_4978
1194,502.0,9_28_30_4982
1195,502.0,9_28_30_4983
1196,502.0,9_28_30_4986
1197,501.0,9_28_30_4990
1198,501.0,9_28_30_4991
1199,502.0,9_28_30_4994
1200,502.0,9_28_30_4999
1201,503.0,9_28_30_5000
1202,503.0,9_28_30_5002
1203,503.0,9_28_30_5003
1204,502.0,9_28_30_5006
1205,502.0,9_28_30_5010
1206,502.0,9_28_30_5011
1207,502.0,9_28_30_5015
1208,503.0,9_28_30_5019
1209,503.0,9_28_30_5021
1210,503.0,9_28_30_5025
1211,502.0,9_28_30_5028
1212,502.0,9_28_30_5029
1213,501.0,9_28_30_5031
1214,502.0,9_28_30_5033
1215,502.0,9_28_30_5035
1216,503.0,9_28_30_5041
1217,502.0,9_28_30_5043
1218,503.0,9_28_30_5044
1219,502.0,9_28_30_5048
1220,501.0,9_28_30_5049
1221,501.0,9_28_30_5052
1222,502.0,9_28_30_5056
1223,503.0,9_28_30_5057
1224,502.0,9_28_30_5060
1225,502.0,9_28_30_5061
1226,502.0,9_28_30_5064
1227,502.0,9_28_30_5068
1228,501.0,9_28_30_5070
1229,501.0,9_28_30_5072
1230,501.0,9_28_30_5077
1231,502.0,9_28_30_5077
1232,502.0,9_28_30_5080
1233,503.0,9_28_30_5081
1234,502.0,9_28_30_5085
1235,501.0,9_28_30_5089
1236,502.0,9_28_30_5090
1237,502.0,9_28_30_5092
1238,502.0,9_28_30_5097
1239,502.0,9_28_30_5098
1240,502.0,9_28_30_5101
1241,502.0,9_28_30_5105
1242,502.0,9_28_30_5105
1243,501.0,9_28_30_5109
1244,501.0,9_28_30_5110
1245,501.0,9_28_30_5114
1246,502.0,9_28_30_5118
1247,502.0,9_28_30_5119
1248,503.0,9_28_30_5122
1249,502.0,9_28_30_5126
1250,502.0,9_28_30_5127
1251,501.0,9_28_30_5129
1252,502.0,9_28_30_5133
1253,502.0,9_28_30_5134
1254,502.0,9_28_30_5138
1255,502.0,9_28_30_5139
1256,503.0,9_28_30_5142
1257,502.0,9_28_30_5146
1258,501.0,9_28_30_5146
1259,501.0,9_28_30_5150
1260,501.0,9_28_30_5154
1261,502.0,9_28_30_5155
1262,503.0,9_28_30_5159
1263,502.0,9_28_30_5163
1264,502.0,9_28_30_5163
1265,502.0,9_28_30_5166
1266,501.0,9_28_30_5167
1267,501.0,9_28_30_5170
1268,502.0,9_28_30_5175
1269,502.0,9_28_30_5176
1270,503.0,9_28_30_5179
1271,502.0,9_28_30_5183
1272,503.0,9_28_30_5185
1273,502.0,9_28_30_5187
1274,501.0,9_28_30_5191
1275,502.0,9_28_30_5193
1276,501.0,9_28_30_5195
1277,502.0,9_28_30_5196
1278,503.0,9_28_30_5199
1279,503.0,9_28_30_5203
1280,502.0,9_28_30_5204
1281,502.0,9_28_30_5208
1282,501.0,9_28_30_5212
1283,501.0,9_28_30_5212
1284,502.0,9_28_31_5216
1285,502.0,9_28_31_5220
1286,503.0,9_28_31_5221
1287,503.0,9_28_31_5224
1288,503.0,9_28_31_5224
1289,501.0,9_28_31_5227
1290,502.0,9_28_31_5231
1291,501.0,9_28_31_5233
1292,502.0,9_28_31_5236
1293,502.0,9_28_31_5240
1294,503.0,9_28_31_5241
1295,502.0,9_28_31_5244
1296,502.0,9_28_31_5248
1297,501.0,9_28_31_5250
1298,501.0,9_28_31_5253
1299,502.0,9_28_31_5254
1300,503.0,9_28_31_5256
1301,503.0,9_28_31_5260
1302,502.0,9_28_31_5262
1303,502.0,9_28_31_5265
1304,502.0,9_28_31_5269
1305,501.0,9_28_31_5270
1306,502.0,9_28_31_5273
1307,502.0,9_28_31_5274
1308,503.0,9_28_31_5277
1309,502.0,9_28_31_5281
1310,502.0,9_28_31_5284
1311,502.0,9_28_31_5285
1312,501.0,9_28_31_5289
1313,501.0,9_28_31_5290
1314,501.0,9_28_31_5294
1315,502.0,9_28_31_5298
1316,503.0,9_28_31_5300
1317,502.0,9_28_31_5301
1318,503.0,9_28_31_5302
1319,503.0,9_28_31_5305
1320,502.0,9_28_31_5309
1321,501.0,9_28_31_5310
1322,502.0,9_28_31_5314
1323,502.0,9_28_31_5318
1324,502.0,9_28_31_5318
1325,502.0,9_28_31_5323
1326,502.0,9_28_31_5327
1327,502.0,9_28_31_5327
1328,501.0,9_28_31_5331
1329,501.0,9_28_31_5332
1330,502.0,9_28_31_5335
1331,503.0,9_28_31_5339
1332,502.0,9_28_31_5340
1333,503.0,9_28_31_5343
1334,502.0,9_28_31_5347
1335,502.0,9_28_31_5349
1336,501.0,9_28_31_5351
1337,502.0,9_28_31_5355
1338,502.0,9_28_31_5357
1339,502.0,9_28_31_5359
1340,502.0,9_28_31_5360
1341,502.0,9_28_31_5364
1342,503.0,9_28_31_5368
1343,502.0,9_28_31_5368
1344,501.0,9_28_31_5372
1345,502.0,9_28_31_5375
1346,503.0,9_28_31_5378
1347,503.0,9_28_31_5380
1348,503.0,9_28_31_5383
1349,502.0,9_28_31_5384
1350,502.0,9_28_31_5387
1351,501.0,9_28_31_5388
1352,502.0,9_28_31_5391
1353,502.0,9_28_31_5396
1354,502.0,9_28_31_5397
1355,503.0,9_28_31_5400
1356,502.0,9_28_31_5404
1357,503.0,9_28_31_5405
1358,502.0,9_28_31_5408
1359,501.0,9_28_31_5413
1360,502.0,9_28_31_5413
1361,502.0,9_28_31_5416
1362,502.0,9_28_31_5417
1363,503.0,9_28_31_5420
1364,502.0,9_28_31_5425
1365,503.0,9_28_31_5425
1366,501.0,9_28_31_5429
1367,501.0,9_28_31_5433
1368,501.0,9_28_31_5434
1369,502.0,9_28_31_5437
1370,503.0,9_28_31_5438
1371,502.0,9_28_31_5441
1372,502.0,9_28_31_5445
1373,502.0,9_28_31_5446
1374,501.0,9_28_31_5449
1375,501.0,9_28_31_5453
1376,502.0,9_28_31_5454
1377,503.0,9_28_31_5457
1378,503.0,9_28_31_5461
1379,503.0,9_28_31_5462
1380,502.0,9_28_31_5465
1381,502.0,9_28_31_5466
1382,502.0,9_28_31_5469
1383,501.0,9_28_31_5474
1384,502.0,9_28_31_5475
1385,502.0,9_28_31_5478
1386,503.0,9_28_31_5481
1387,503.0,9_28_31_5483
1388,502.0,9_28_31_5486
1389,502.0,9_28_31_5490
1390,501.0,9_28_31_5491
1391,502.0,9_28_31_5494
1392,503.0,9_28_31_5495
1393,502.0,9_28_31_5498
1394,502.0,9_28_31_5502
1395,502.0,9_28_31_5503
1396,502.0,9_28_31_5506
1397,501.0,9_28_31_5511
1398,501.0,9_28_31_5512
1399,502.0,9_28_31_5515
1400,502.0,9_28_31_5518
1401,503.0,9_28_31_5519
1402,503.0,9_28_31_5523
1403,502.0,9_28_31_5524
1404,502.0,9_28_31_5527
1405,501.0,9_28_31_5531
1406,501.0,9_28_31_5532
1407,502.0,9_28_31_5535
1408,503.0,9_28_31_5540
1409,503.0,9_28_31_5541
1410,503.0,9_28_31_5544
1411,502.0,9_28_31_5547
1412,501.0,9_28_31_5548
1413,501.0,9_28_31_5552
1414,501.0,9_28_31_5553
1415,503.0,9_28_31_5556
1416,502.0,9_28_31_5560
1417,502.0,9_28_31_5561
1418,503.0,9_28_31_5563
1419,502.0,9_28_31_5568
1420,501.0,9_28_31_5569
1421,501.0,9_28_31_5572
1422,501.0,9_28_31_5576
1423,503.0,9_28_31_5577
1424,503.0,9_28_31_5580
1425,503.0,9_28_31_5582
1426,503.0,9_28_31_5584
1427,501.0,9_28_31_5588
1428,501.0,9_28_31_5589
1429,502.0,9_28_31_5592
1430,502.0,9_28_31_5597
1431,503.0,9_28_31_5598
1432,502.0,9_28_31_5601
1433,502.0,9_28_31_5605
1434,502.0,9_28_31_5606
1435,501.0,9_28_31_5609
1436,501.0,9_28_31_5610
1437,502.0,9_28_31_5613
1438,502.0,9_28_31_5616
1439,503.0,9_28_31_5617
1440,503.0,9_28_31_5621
1441,502.0,9_28_31_5626
1442,502.0,9_28_31_5627
1443,501.0,9_28_31_5629
1444,501.0,9_28_31_5631
1445,502.0,9_28_31_5633
1446,502.0,9_28_31_5637
1447,503.0,9_28_31_5638
1448,503.0,9_28_31_5641
1449,502.0,9_28_31_5646
1450,502.0,9_28_31_5647
1451,502.0,9_28_31_5650
1452,501.0,9_28_31_5654
1453,502.0,9_28_31_5656
1454,502.0,9_28_31_5658
1455,503.0,9_28_31_5659
1456,503.0,9_28_31_5662
1457,502.0,9_28_31_5666
1458,501.0,9_28_31_5667
1459,501.0,9_28_31_5670
1460,501.0,9_28_31_5674
1461,502.0,9_28_31_5675
1462,502.0,9_28_31_5679
1463,503.0,9_28_31_5682
1464,502.0,9_28_31_5683
1465,502.0,9_28_31_5687
1466,501.0,9_28_31_5688
1467,501.0,9_28_31_5690
1468,502.0,9_28_31_5695
1469,503.0,9_28_31_5696
1470,503.0,9_28_31_5699
1471,503.0,9_28_31_5703
1472,502.0,9_28_31_5704
1473,502.0,9_28_31_5708
1474,501.0,9_28_31_5711
1475,501.0,9_28_31_5712
1476,502.0,9_28_31_5715
1477,503.0,9_28_31_5716
1478,502.0,9_28_31_5720
1479,502.0,9_28_31_5723
1480,502.0,9_28_31_5724
1481,501.0,9_28_31_5727
1482,501.0,9_28_31_5732
1483,501.0,9_28_31_5733
1484,502.0,9_28_31_5736
1485,502.0,9_28_31_5740
1486,502.0,9_28_31_5741
1487,503.0,9_28_31_5743
1488,502.0,9_28_31_5745
1489,501.0,9_28_31_5748
1490,502.0,9_28_31_5752
1491,502.0,9_28_31_5753
1492,502.0,9_28_31_5757
1493,502.0,9_28_31_5760
1494,503.0,9_28_31_5761
1495,503.0,9_28_31_5764
1496,503.0,9_28_31_5769
1497,502.0,9_28_31_5770
1498,501.0,9_28_31_5772
1499,502.0,9_28_31_5774
1500,503.0,9_28_31_5777
1501,503.0,9_28_31_5781
1502,502.0,9_28_31_5782
1503,502.0,9_28_31_5785
1504,501.0,9_28_31_5789
1505,501.0,9_28_31_5791
1506,501.0,9_28_31_5794
1507,502.0,9_28_31_5795
1508,502.0,9_28_31_5797
1509,502.0,9_28_31_5801
1510,503.0,9_28_31_5802
1511,502.0,9_28_31_5806
1512,501.0,9_28_31_5810
1513,501.0,9_28_31_5811
1514,502.0,9_28_31_5814
1515,502.0,9_28_31_5817
1516,503.0,9_28_31_5818
1517,502.0,9_28_31_5821
1518,503.0,9_28_31_5823
1519,502.0,9_28_31_5826
1520,501.0,9_28_31_5830
1521,502.0,9_28_31_5831
1522,502.0,9_28_31_5835
1523,502.0,9_28_31_5839
1524,503.0,9_28_31_5840
1525,502.0,9_28_31_5842
1526,502.0,9_28_31_5846
1527,501.0,9_28_31_5847
1528,502.0,9_28_31_5850
1529,501.0,9_28_31_5851
1530,502.0,9_28_31_5854
1531,503.0,9_28_31_5859
1532,502.0,9_28_31_5860
1533,502.0,9_28_31_5863
1534,502.0,9_28_31_5867
1535,501.0,9_28_31_5868
1536,501.0,9_28_31_5871
1537,501.0,9_28_31_5875
1538,502.0,9_28_31_5877
1539,503.0,9_28_31_5879
1540,502.0,9_28_31_5880
1541,502.0,9_28_31_5884
1542,502.0,9_28_31_5887
1543,501.0,9_28_31_5888
1544,501.0,9_28_31_5892
1545,502.0,9_28_31_5895
1546,503.0,9_28_31_5897
1547,503.0,9_28_31_5900
1548,502.0,9_28_31_5903
1549,502.0,9_28_31_5905
1550,502.0,9_28_31_5908
1551,501.0,9_28_31_5909
1552,502.0,9_28_31_5912
1553,502.0,9_28_31_5916
1554,502.0,9_28_31_5917
1555,502.0,9_28_31_5920
1556,502.0,9_28_31_5924
1557,502.0,9_28_31_5925
1558,501.0,9_28_31_5928
1559,501.0,9_28_31_5933
1560,501.0,9_28_31_5934
1561,503.0,9_28_31_5937
1562,502.0,9_28_31_5938
1563,503.0,9_28_31_5940
1564,502.0,9_28_31_5945
1565,502.0,9_28_31_5947
1566,502.0,9_28_31_5949
1567,502.0,9_28_31_5953
1568,501.0,9_28_31_5954
1569,502.0,9_28_31_5957
1570,503.0,9_28_31_5961
1571,502.0,9_28_31_5963
1572,503.0,9_28_31_5965
1573,501.0,9_28_31_5967
1574,501.0,9_28_31_5969
1575,501.0,9_28_31_5973
1576,501.0,9_28_31_5974
1577,503.0,9_28_31_5977
1578,503.0,9_28_31_5982
1579,503.0,9_28_31_5985
1580,502.0,9_28_31_5986
1581,501.0,9_28_31_5987
1582,501.0,9_28_31_5990
1583,502.0,9_28_31_5994
1584,502.0,9_28_31_5995
1585,503.0,9_28_31_5997
1586,503.0,9_28_31_6002
1587,502.0,9_28_31_6003
1588,502.0,9_28_31_6006
1589,502.0,9_28_31_6010
1590,501.0,9_28_31_6011
1591,502.0,9_28_31_6014
1592,503.0,9_28_31_6016
1593,503.0,9_28_31_6018
1594,503.0,9_28_31_6023
1595,503.0,9_28_31_6025
1596,501.0,9_28_31_6027
1597,501.0,9_28_31_6031
1598,501.0,9_28_31_6032
1599,502.0,9_28_31_6034
1600,502.0,9_28_31_6039
1601,503.0,9_28_31_6041
1602,503.0,9_28_31_6043
1603,503.0,9_28_31_6044
1604,501.0,9_28_31_6048
1605,501.0,9_28_31_6051
1606,501.0,9_28_31_6053
1607,502.0,9_28_31_6056
1608,503.0,9_28_31_6059
1609,503.0,9_28_31_6060
1610,503.0,9_28_31_6064
1611,502.0,9_28_31_6067
1612,501.0,9_28_31_6069
1613,501.0,9_28_31_6071
1614,502.0,9_28_31_6073
1615,502.0,9_28_31_6076
1616,503.0,9_28_31_6079
1617,503.0,9_28_31_6082
1618,503.0,9_28_31_6084
1619,502.0,9_28_31_6088
1620,501.0,9_28_31_6089
1621,501.0,9_28_31_6092
1622,502.0,9_28_31_6096
1623,503.0,9_28_31_6097
1624,502.0,9_28_31_6100
1625,503.0,9_28_31_6101
1626,503.0,9_28_31_6105
1627,502.0,9_28_31_6108
1628,502.0,9_28_31_6109
1629,501.0,9_28_31_6112
1630,502.0,9_28_31_6117
1631,503.0,9_28_31_6118
1632,503.0,9_28_31_6122
1633,503.0,9_28_31_6125
1634,502.0,9_28_31_6126
1635,501.0,9_28_31_6130
1636,501.0,9_28_31_6131
1637,502.0,9_28_31_6133
1638,502.0,9_28_31_6137
1639,503.0,9_28_31_6139
1640,502.0,9_28_31_6141
1641,502.0,9_28_31_6145
1642,502.0,9_28_31_6147
1643,501.0,9_28_31_6149
1644,502.0,9_28_31_6150
1645,501.0,9_28_31_6153
1646,502.0,9_28_31_6158
1647,502.0,9_28_31_6159
1648,503.0,9_28_31_6162
1649,502.0,9_28_31_6166
1650,502.0,9_28_31_6167
1651,501.0,9_28_31_6170
1652,501.0,9_28_31_6175
1653,502.0,9_28_31_6176
1654,503.0,9_28_31_6178
1655,503.0,9_28_31_6179
1656,503.0,9_28_31_6182
1657,502.0,9_28_31_6187
1658,501.0,9_28_31_6189
1659,501.0,9_28_31_6191
1660,501.0,9_28_31_6194
1661,502.0,9_28_31_6195
1662,503.0,9_28_31_6198
1663,503.0,9_28_31_6203
1664,502.0,9_28_31_6204
1665,502.0,9_28_31_6207
1666,502.0,9_28_31_6208
1667,501.0,9_28_31_6211
1668,502.0,9_28_32_6215
1669,502.0,9_28_32_6216
1670,503.0,9_28_32_6219
1671,503.0,9_28_32_6223
1672,502.0,9_28_32_6225
1673,501.0,9_28_32_6228
1674,501.0,9_28_32_6231
1675,501.0,9_28_32_6233
1676,502.0,9_28_32_6236
1677,503.0,9_28_32_6237
1678,503.0,9_28_32_6239
1679,502.0,9_28_32_6244
1680,502.0,9_28_32_6245
1681,501.0,9_28_32_6248
1682,502.0,9_28_32_6252
1683,501.0,9_28_32_6253
1684,502.0,9_28_32_6256
1685,503.0,9_28_32_6261
1686,503.0,9_28_32_6262
1687,502.0,9_28_32_6264
1688,502.0,9_28_32_6265
1689,501.0,9_28_32_6268
1690,501.0,9_28_32_6273
1691,502.0,9_28_32_6274
1692,502.0,9_28_32_6276
1693,502.0,9_28_32_6281
1694,502.0,9_28_32_6283
1695,503.0,9_28_32_6285
1696,502.0,9_28_32_6288
1697,501.0,9_28_32_6290
1698,501.0,9_28_32_6293
1699,502.0,9_28_32_6294
1700,503.0,9_28_32_6297
1701,502.0,9_28_32_6301
1702,503.0,9_28_32_6302
1703,502.0,9_28_32_6305
1704,501.0,9_28_32_6310
1705,501.0,9_28_32_6311
1706,501.0,9_28_32_6313
1707,503.0,9_28_32_6318
1708,503.0,9_28_32_6319
1709,503.0,9_28_32_6321
1710,503.0,9_28_32_6322
1711,503.0,9_28_32_6325
1712,501.0,9_28_32_6330
1713,502.0,9_28_32_6331
1714,502.0,9_28_32_6333
1715,502.0,9_28_32_6338
1716,503.0,9_28_32_6339
1717,503.0,9_28_32_6342
1718,502.0,9_28_32_6343
1719,502.0,9_28_32_6346
1720,501.0,9_28_32_6350
1721,501.0,9_28_32_6351
1722,502.0,9_28_32_6355
1723,503.0,9_28_32_6358
1724,503.0,9_28_32_6360
1725,502.0,9_28_32_6363
1726,502.0,9_28_32_6367
1727,502.0,9_28_32_6368
1728,501.0,9_28_32_6371
1729,502.0,9_28_32_6373
1730,502.0,9_28_32_6375
1731,502.0,9_28_32_6379
1732,502.0,9_28_32_6380
1733,503.0,9_28_32_6382
1734,502.0,9_28_32_6387
1735,501.0,9_28_32_6389
1736,501.0,9_28_32_6391
1737,501.0,9_28_32_6396
1738,502.0,9_28_32_6397
1739,503.0,9_28_32_6399
1740,503.0,9_28_32_6400
1741,502.0,9_28_32_6403
1742,502.0,9_28_32_6408
1743,501.0,9_28_32_6409
1744,501.0,9_28_32_6412
1745,502.0,9_28_32_6416
1746,503.0,9_28_32_6417
1747,502.0,9_28_32_6420
1748,502.0,9_28_32_6424
1749,502.0,9_28_32_6426
1750,502.0,9_28_32_6428
1751,501.0,9_28_32_6429
1752,501.0,9_28_32_6432
1753,502.0,9_28_32_6437
1754,503.0,9_28_32_6438
1755,502.0,9_28_32_6440
1756,502.0,9_28_32_6444
1757,502.0,9_28_32_6445
1758,501.0,9_28_32_6448
1759,501.0,9_28_32_6453
1760,502.0,9_28_32_6454
1761,502.0,9_28_32_6456
1762,502.0,9_28_32_6457
1763,503.0,9_28_32_6461
1764,502.0,9_28_32_6465
1765,501.0,9_28_32_6467
1766,501.0,9_28_32_6469
1767,501.0,9_28_32_6473
1768,502.0,9_28_32_6474
1769,503.0,9_28_32_6477
1770,502.0,9_28_32_6481
1771,502.0,9_28_32_6483
1772,502.0,9_28_32_6485
1773,501.0,9_28_32_6486
1774,502.0,9_28_32_6490
1775,501.0,9_28_32_6493
1776,502.0,9_28_32_6495
1777,502.0,9_28_32_6498
1778,503.0,9_28_32_6502
1779,503.0,9_28_32_6504
1780,502.0,9_28_32_6506
1781,501.0,9_28_32_6508
1782,501.0,9_28_32_6510
1783,501.0,9_28_32_6514
1784,502.0,9_28_32_6515
1785,503.0,9_28_32_6519
1786,502.0,9_28_32_6522
1787,503.0,9_28_32_6523
1788,502.0,9_28_32_6527
1789,501.0,9_28_32_6530
1790,501.0,9_28_32_6532
1791,502.0,9_28_32_6535
1792,503.0,9_28_32_6536
1793,503.0,9_28_32_6538
1794,503.0,9_28_32_6542
1795,502.0,9_28_32_6543
1796,501.0,9_28_32_6546
1797,502.0,9_28_32_6551
1798,501.0,9_28_32_6552
1799,502.0,9_28_32_6555
1800,503.0,9_28_32_6559
1801,503.0,9_28_32_6561
1802,503.0,9_28_32_6563
1803,502.0,9_28_32_6564
1804,501.0,9_28_32_6567
1805,501.0,9_28_32_6572
1806,501.0,9_28_32_6573
1807,502.0,9_28_32_6576
1808,503.0,9_28_32_6579
1809,502.0,9_28_32_6581
1810,503.0,9_28_32_6583
1811,502.0,9_28_32_6588
1812,501.0,9_28_32_6589
1813,501.0,9_28_32_6591
1814,502.0,9_28_32_6593
1815,502.0,9_28_32_6596
1816,503.0,9_28_32_6600
1817,502.0,9_28_32_6601
1818,502.0,9_28_32_6605
1819,502.0,9_28_32_6608
1820,501.0,9_28_32_6609
1821,502.0,9_28_32_6612
1822,502.0,9_28_32_6616
1823,503.0,9_28_32_6617
1824,502.0,9_28_32_6621
1825,503.0,9_28_32_6622
1826,503.0,9_28_32_6625
1827,501.0,9_28_32_6629
1828,501.0,9_28_32_6630
1829,502.0,9_28_32_6633
1830,502.0,9_28_32_6636
1831,503.0,9_28_32_6638
1832,503.0,9_28_32_6641
1833,503.0,9_28_32_6645
1834,502.0,9_28_32_6646
1835,501.0,9_28_32_6649
1836,501.0,9_28_32_6651
1837,502.0,9_28_32_6654
1838,503.0,9_28_32_6657
1839,503.0,9_28_32_6658
1840,503.0,9_28_32_6662
1841,502.0,9_28_32_6665
1842,502.0,9_28_32_6667
1843,502.0,9_28_32_6670
1844,502.0,9_28_32_6671
1845,502.0,9_28_32_6674
1846,502.0,9_28_32_6678
1847,503.0,9_28_32_6679
1848,502.0,9_28_32_6682
1849,502.0,9_28_32_6687
1850,501.0,9_28_32_6688
1851,502.0,9_28_32_6690
1852,502.0,9_28_32_6694
1853,502.0,9_28_32_6695
1854,503.0,9_28_32_6699
1855,503.0,9_28_32_6700
1856,503.0,9_28_32_6702
1857,503.0,9_28_32_6707
1858,501.0,9_28_32_6708
1859,501.0,9_28_32_6710
1860,502.0,9_28_32_6715
1861,502.0,9_28_32_6716
1862,502.0,9_28_32_6719
1863,503.0,9_28_32_6723
1864,502.0,9_28_32_6725
1865,501.0,9_28_32_6727
1866,501.0,9_28_32_6728
1867,501.0,9_28_32_6731
1868,502.0,9_28_32_6735
1869,503.0,9_28_32_6736
1870,503.0,9_28_32_6739
1871,503.0,9_28_32_6744
1872,502.0,9_28_32_6745
1873,502.0,9_28_32_6747
1874,501.0,9_28_32_6752
1875,502.0,9_28_32_6753
1876,502.0,9_28_32_6755
1877,502.0,9_28_32_6757
1878,502.0,9_28_32_6760
1879,502.0,9_28_32_6764
1880,502.0,9_28_32_6766
1881,501.0,9_28_32_6768
1882,501.0,9_28_32_6773
1883,502.0,9_28_32_6775
1884,502.0,9_28_32_6777
1885,502.0,9_28_32_6781
1886,503.0,9_28_32_6783
1887,503.0,9_28_32_6785
1888,502.0,9_28_32_6787
1889,501.0,9_28_32_6789
1890,501.0,9_28_32_6792
1891,501.0,9_28_32_6794
1892,502.0,9_28_32_6797
1893,502.0,9_28_32_6801
1894,502.0,9_28_32_6802
1895,502.0,9_28_32_6804
1896,502.0,9_28_32_6809
1897,501.0,9_28_32_6810
1898,501.0,9_28_32_6813
1899,502.0,9_28_32_6814
1900,503.0,9_28_32_6817
1901,503.0,9_28_32_6821
1902,503.0,9_28_32_6822
1903,502.0,9_28_32_6825
1904,502.0,9_28_32_6829
1905,501.0,9_28_32_6830
1906,501.0,9_28_32_6833
1907,502.0,9_28_32_6838
1908,503.0,9_28_32_6839
1909,502.0,9_28_32_6842
1910,502.0,9_28_32_6844
1911,502.0,9_28_32_6846
1912,501.0,9_28_32_6850
1913,501.0,9_28_32_6851
1914,501.0,9_28_32_6854
1915,503.0,9_28_32_6858
1916,503.0,9_28_32_6859
1917,503.0,9_28_32_6863
1918,502.0,9_28_32_6864
1919,502.0,9_28_32_6867
1920,501.0,9_28_32_6870
1921,502.0,9_28_32_6872
1922,503.0,9_28_32_6875
1923,502.0,9_28_32_6879
1924,502.0,9_28_32_6907
1925,502.0,9_28_32_6942
1926,502.0,9_28_32_6943
1927,501.0,9_28_32_6944
1928,502.0,9_28_32_6944
1929,502.0,9_28_32_6945
1930,502.0,9_28_32_6946
1931,502.0,9_28_32_6947
1932,502.0,9_28_32_6949
1933,503.0,9_28_32_6951
1934,502.0,9_28_32_6953
1935,501.0,9_28_32_6954
1936,501.0,9_28_32_6956
1937,501.0,9_28_32_6957
1938,502.0,9_28_32_6958
1939,503.0,9_28_32_6959
1940,502.0,9_28_32_6960
1941,503.0,9_28_32_6961
1942,501.0,9_28_32_6961
1943,501.0,9_28_32_6962
1944,501.0,9_28_32_6963
1945,501.0,9_28_32_6964
1946,503.0,9_28_32_6965
1947,502.0,9_28_32_6966
1948,503.0,9_28_32_6967
1949,502.0,9_28_32_6968
1950,501.0,9_28_32_6969
1951,501.0,9_28_32_6970
1952,502.0,9_28_32_6972
1953,502.0,9_28_32_6973
1954,503.0,9_28_32_6975
1955,502.0,9_28_32_6976
1956,503.0,9_28_32_6978
1957,502.0,9_28_32_6979
1958,501.0,9_28_32_6980
1959,502.0,9_28_32_6981
1960,502.0,9_28_32_6982
1961,503.0,9_28_32_6983
1962,502.0,9_28_32_6984
1963,502.0,9_28_32_6985
1964,502.0,9_28_32_6986
1965,501.0,9_28_32_6987
1966,502.0,9_28_32_6989
1967,501.0,9_28_32_6994
1968,502.0,9_28_32_6995
1969,503.0,9_28_32_6997
1970,503.0,9_28_32_7002
1971,502.0,9_28_32_7003
1972,502.0,9_28_32_7005
1973,501.0,9_28_32_7007
1974,501.0,9_28_32_7010
1975,501.0,9_28_32_7014
1976,501.0,9_28_32_7015
1977,502.0,9_28_32_7018
1978,503.0,9_28_32_7022
1979,502.0,9_28_32_7023
1980,502.0,9_28_32_7026
1981,501.0,9_28_32_7027
1982,501.0,9_28_32_7030
1983,501.0,9_28_32_7034
1984,503.0,9_28_32_7036
1985,502.0,9_28_32_7038
1986,503.0,9_28_32_7043
1987,502.0,9_28_32_7044
1988,502.0,9_28_32_7046
1989,501.0,9_28_32_7050
1990,501.0,9_28_32_7052
1991,502.0,9_28_32_7055
1992,502.0,9_28_32_7056
1993,503.0,9_28_32_7059
1994,502.0,9_28_32_7063
1995,502.0,9_28_32_7064
1996,501.0,9_28_32_7067
1997,501.0,9_28_32_7072
1998,501.0,9_28_32_7073
1999,502.0,9_28_32_7076
2000,503.0,9_28_32_7079
2001,503.0,9_28_32_7081
2002,503.0,9_28_32_7084
2003,502.0,9_28_32_7085
2004,501.0,9_28_32_7087
2005,501.0,9_28_32_7092
2006,502.0,9_28_32_7093
2007,502.0,9_28_32_7096
2008,502.0,9_28_32_7100
2009,502.0,9_28_32_7102
2010,503.0,9_28_32_7104
2011,502.0,9_28_32_7109
2012,501.0,9_28_32_7110
2013,502.0,9_28_32_7112
2014,501.0,9_28_32_7114
2015,502.0,9_28_32_7116
2016,502.0,9_28_32_7121
2017,503.0,9_28_32_7122
2018,502.0,9_28_32_7124
2019,502.0,9_28_32_7129
2020,501.0,9_28_32_7130
2021,502.0,9_28_32_7133
2022,502.0,9_28_32_7136
2023,503.0,9_28_32_7138
2024,503.0,9_28_32_7141
2025,503.0,9_28_32_7143
2026,502.0,9_28_32_7145
2027,501.0,9_28_32_7149
2028,501.0,9_28_32_7150
2029,502.0,9_28_32_7153
2030,502.0,9_28_32_7157
2031,503.0,9_28_32_7158
2032,502.0,9_28_32_7161
2033,503.0,9_28_32_7166
2034,502.0,9_28_32_7167
2035,501.0,9_28_32_7170
2036,501.0,9_28_32_7171
2037,502.0,9_28_32_7175
2038,502.0,9_28_32_7178
2039,503.0,9_28_32_7179
2040,503.0,9_28_32_7182
2041,502.0,9_28_32_7185
2042,502.0,9_28_32_7187
2043,501.0,9_28_32_7190
2044,501.0,9_28_32_7194
2045,502.0,9_28_32_7195
2046,503.0,9_28_32_7198
2047,503.0,9_28_32_7200
2048,503.0,9_28_32_7202
2049,502.0,9_28_32_7207
2050,501.0,9_28_32_7208
2051,501.0,9_28_32_7210
2052,501.0,9_28_33_7214
2053,502.0,9_28_33_7216
2054,502.0,9_28_33_7219
2055,503.0,9_28_33_7220
2056,503.0,9_28_33_7223
2057,502.0,9_28_33_7226
2058,501.0,9_28_33_7228
2059,501.0,9_28_33_7231
2060,502.0,9_28_33_7235
2061,503.0,9_28_33_7236
2062,503.0,9_28_33_7239
2063,503.0,9_28_33_7243
2064,503.0,9_28_33_7245
2065,502.0,9_28_33_7247
2066,501.0,9_28_33_7248
2067,502.0,9_28_33_7251
2068,501.0,9_28_33_7255
2069,502.0,9_28_33_7257
2070,503.0,9_28_33_7259
2071,503.0,9_28_33_7264
2072,502.0,9_28_33_7265
2073,501.0,9_28_33_7268
2074,501.0,9_28_33_7272
2075,501.0,9_28_33_7274
2076,503.0,9_28_33_7276
2077,503.0,9_28_33_7278
2078,503.0,9_28_33_7280
2079,502.0,9_28_33_7284
2080,503.0,9_28_33_7285
2081,501.0,9_28_33_7288
2082,502.0,9_28_33_7293
2083,501.0,9_28_33_7294
2084,503.0,9_28_33_7296
2085,503.0,9_28_33_7300
2086,502.0,9_28_33_7301
2087,502.0,9_28_33_7304
2088,502.0,9_28_33_7306
2089,501.0,9_28_33_7309
2090,501.0,9_28_33_7313
2091,502.0,9_28_33_7314
2092,502.0,9_28_33_7317
2093,502.0,9_28_33_7321
2094,503.0,9_28_33_7322
2095,502.0,9_28_33_7325
2096,502.0,9_28_33_7329
2097,501.0,9_28_33_7330
2098,502.0,9_28_33_7334
2099,502.0,9_28_33_7335
2100,503.0,9_28_33_7337
2101,502.0,9_28_33_7341
2102,502.0,9_28_33_7342
2103,502.0,9_28_33_7345
2104,501.0,9_28_33_7349
2105,501.0,9_28_33_7351
2106,502.0,9_28_33_7354
2107,503.0,9_28_33_7357
2108,503.0,9_28_33_7359
2109,502.0,9_28_33_7362
2110,502.0,9_28_33_7364
2111,502.0,9_28_33_7366
2112,501.0,9_28_33_7370
2113,501.0,9_28_33_7371
2114,502.0,9_28_33_7374
2115,502.0,9_28_33_7378
2116,503.0,9_28_33_7380
2117,502.0,9_28_33_7382
2118,503.0,9_28_33_7383
2119,501.0,9_28_33_7387
2120,501.0,9_28_33_7391
2121,502.0,9_28_33_7392
2122,502.0,9_28_33_7395
2123,503.0,9_28_33_7398
2124,502.0,9_28_33_7400
2125,503.0,9_28_33_7403
2126,502.0,9_28_33_7407
2127,502.0,9_28_33_7409
2128,501.0,9_28_33_7411
2129,501.0,9_28_33_7412
2130,502.0,9_28_33_7416
2131,503.0,9_28_33_7419
2132,502.0,9_28_33_7421
2133,503.0,9_28_33_7423
2134,502.0,9_28_33_7428
2135,501.0,9_28_33_7429
2136,501.0,9_28_33_7431
2137,502.0,9_28_33_7436
2138,503.0,9_28_33_7438
2139,502.0,9_28_33_7440
2140,502.0,9_28_33_7441
2141,503.0,9_28_33_7444
2142,501.0,9_28_33_7448
2143,501.0,9_28_33_7449
2144,501.0,9_28_33_7452
2145,502.0,9_28_33_7457
2146,502.0,9_28_33_7458
2147,503.0,9_28_33_7460
2148,502.0,9_28_33_7464
2149,502.0,9_28_33_7465
2150,501.0,9_28_33_7469
2151,501.0,9_28_33_7470
2152,502.0,9_28_33_7473
2153,503.0,9_28_33_7477
2154,503.0,9_28_33_7479
2155,502.0,9_28_33_7481
2156,502.0,9_28_33_7485
2157,502.0,9_28_33_7486
2158,501.0,9_28_33_7489
2159,501.0,9_28_33_7493
2160,502.0,9_28_33_7495
2161,503.0,9_28_33_7497
2162,503.0,9_28_33_7498
2163,503.0,9_28_33_7502
2164,502.0,9_28_33_7505
2165,502.0,9_28_33_7507
2166,501.0,9_28_33_7509
2167,501.0,9_28_33_7514
2168,502.0,9_28_33_7515
2169,503.0,9_28_33_7518
2170,503.0,9_28_33_7521
2171,502.0,9_28_33_7523
2172,502.0,9_28_33_7526
2173,502.0,9_28_33_7528
2174,501.0,9_28_33_7530
2175,502.0,9_28_33_7534
2176,502.0,9_28_33_7535
2177,502.0,9_28_33_7539
2178,502.0,9_28_33_7542
2179,502.0,9_28_33_7544
2180,502.0,9_28_33_7546
2181,501.0,9_28_33_7550
2182,501.0,9_28_33_7551
2183,501.0,9_28_33_7555
2184,502.0,9_28_33_7557
2185,502.0,9_28_33_7559
2186,502.0,9_28_33_7562
2187,502.0,9_28_33_7564
2188,501.0,9_28_33_7566
2189,501.0,9_28_33_7571
2190,502.0,9_28_33_7573
2191,502.0,9_28_33_7575
2192,503.0,9_28_33_7576
2193,502.0,9_28_33_7580
2194,502.0,9_28_33_7583
2195,502.0,9_28_33_7585
2196,502.0,9_28_33_7587
2197,501.0,9_28_33_7591
2198,502.0,9_28_33_7593
2199,502.0,9_28_33_7596
2200,502.0,9_28_33_7600
2201,502.0,9_28_33_7602
2202,502.0,9_28_33_7604
2203,502.0,9_28_33_7605
2204,501.0,9_28_33_7608
2205,501.0,9_28_33_7612
2206,501.0,9_28_33_7614
2207,503.0,9_28_33_7616
2208,502.0,9_28_33_7620
2209,502.0,9_28_33_7622
2210,502.0,9_28_33_7624
2211,502.0,9_28_33_7628
2212,501.0,9_28_33_7630
2213,501.0,9_28_33_7632
2214,502.0,9_28_33_7633
2215,502.0,9_28_33_7637
2216,503.0,9_28_33_7641
2217,503.0,9_28_33_7643
2218,502.0,9_28_33_7645
2219,501.0,9_28_33_7648
2220,501.0,9_28_33_7650
2221,501.0,9_28_33_7653
2222,502.0,9_28_33_7657
2223,503.0,9_28_33_7658
2224,503.0,9_28_33_7661
2225,502.0,9_28_33_7663
2226,503.0,9_28_33_7665
2227,501.0,9_28_33_7669
2228,501.0,9_28_33_7670
2229,501.0,9_28_33_7673
2230,503.0,9_28_33_7677
2231,502.0,9_28_33_7679
2232,502.0,9_28_33_7681
2233,502.0,9_28_33_7686
2234,501.0,9_28_33_7688
2235,501.0,9_28_33_7690
2236,501.0,9_28_33_7692
2237,502.0,9_28_33_7694
2238,503.0,9_28_33_7698
2239,503.0,9_28_33_7699
2240,503.0,9_28_33_7701
2241,502.0,9_28_33_7706
2242,502.0,9_28_33_7708
2243,501.0,9_28_33_7710
2244,502.0,9_28_33_7715
2245,502.0,9_28_33_7716
2246,503.0,9_28_33_7718
2247,502.0,9_28_33_7720
2248,503.0,9_28_33_7722
2249,503.0,9_28_33_7727
2250,501.0,9_28_33_7728
2251,501.0,9_28_33_7731
2252,502.0,9_28_33_7735
2253,502.0,9_28_33_7736
2254,503.0,9_28_33_7738
2255,503.0,9_28_33_7740
2256,502.0,9_28_33_7742
2257,502.0,9_28_33_7747
2258,502.0,9_28_33_7748
2259,501.0,9_28_33_7751
2260,502.0,9_28_33_7756
2261,502.0,9_28_33_7757
2262,503.0,9_28_33_7760
2263,502.0,9_28_33_7763
2264,503.0,9_28_33_7765
2265,501.0,9_28_33_7767
2266,501.0,9_28_33_7768
2267,501.0,9_28_33_7771
2268,502.0,9_28_33_7775
2269,503.0,9_28_33_7777
2270,502.0,9_28_33_7780
2271,502.0,9_28_33_7783
2272,502.0,9_28_33_7785
2273,501.0,9_28_33_7788
2274,502.0,9_28_33_7793
2275,502.0,9_28_33_7794
2276,502.0,9_28_33_7796
2277,503.0,9_28_33_7798
2278,503.0,9_28_33_7800
2279,502.0,9_28_33_7805
2280,501.0,9_28_33_7806
2281,501.0,9_28_33_7809
2282,501.0,9_28_33_7812
2283,502.0,9_28_33_7814
2284,503.0,9_28_33_7817
2285,502.0,9_28_33_7821
2286,503.0,9_28_33_7823
2287,502.0,9_28_33_7825
2288,501.0,9_28_33_7826
2289,501.0,9_28_33_7829
2290,501.0,9_28_33_7833
2291,502.0,9_28_33_7835
2292,503.0,9_28_33_7837
2293,502.0,9_28_33_7841
2294,503.0,9_28_33_7843
2295,502.0,9_28_33_7845
2296,501.0,9_28_33_7850
2297,501.0,9_28_33_7852
2298,501.0,9_28_33_7853
2299,502.0,9_28_33_7854
2300,502.0,9_28_33_7857
2301,502.0,9_28_33_7862
2302,503.0,9_28_33_7864
2303,502.0,9_28_33_7866
2304,501.0,9_28_33_7870
2305,501.0,9_28_33_7872
2306,502.0,9_28_33_7874
2307,502.0,9_28_33_7879
2308,502.0,9_28_33_7880
2309,503.0,9_28_33_7883
2310,503.0,9_28_33_7884
2311,502.0,9_28_33_7886
2312,501.0,9_28_33_7890
2313,501.0,9_28_33_7892
2314,502.0,9_28_33_7894
2315,504.0,9_28_33_7899
2316,503.0,9_28_33_7900
2317,502.0,9_28_33_7903
2318,503.0,9_28_33_7906
2319,502.0,9_28_33_7908
2320,501.0,9_28_33_7911
2321,502.0,9_28_33_7913
2322,503.0,9_28_33_7915
2323,503.0,9_28_33_7919
2324,502.0,9_28_33_7921
2325,502.0,9_28_33_7923
2326,502.0,9_28_33_7927
2327,501.0,9_28_33_7928
2328,501.0,9_28_33_7932
2329,501.0,9_28_33_7933
2330,502.0,9_28_33_7936
2331,503.0,9_28_33_7939
2332,503.0,9_28_33_7941
2333,502.0,9_28_33_7944
2334,502.0,9_28_33_7948
2335,502.0,9_28_33_7949
2336,502.0,9_28_33_7951
2337,502.0,9_28_33_7956
2338,503.0,9_28_33_7958
2339,503.0,9_28_33_7960
2340,502.0,9_28_33_7962
2341,502.0,9_28_33_7964
2342,502.0,9_28_33_7969
2343,501.0,9_28_33_7970
2344,501.0,9_28_33_7973
2345,502.0,9_28_33_7976
2346,502.0,9_28_33_7978
2347,503.0,9_28_33_7980
2348,502.0,9_28_33_7984
2349,503.0,9_28_33_7986
2350,502.0,9_28_33_7988
2351,501.0,9_28_33_7990
2352,501.0,9_28_33_7992
2353,503.0,9_28_33_7997
2354,503.0,9_28_33_7999
2355,502.0,9_28_33_8001
2356,503.0,9_28_33_8005
2357,501.0,9_28_33_8007
2358,502.0,9_28_33_8010
2359,502.0,9_28_33_8014
2360,502.0,9_28_33_8015
2361,502.0,9_28_33_8018
2362,503.0,9_28_33_8020
2363,502.0,9_28_33_8022
2364,502.0,9_28_33_8026
2365,501.0,9_28_33_8027
2366,501.0,9_28_33_8029
2367,501.0,9_28_33_8034
2368,502.0,9_28_33_8036
2369,503.0,9_28_33_8037
2370,502.0,9_28_33_8042
2371,502.0,9_28_33_8044
2372,503.0,9_28_33_8046
2373,501.0,9_28_33_8048
2374,501.0,9_28_33_8050
2375,502.0,9_28_33_8054
2376,502.0,9_28_33_8056
2377,502.0,9_28_33_8058
2378,502.0,9_28_33_8062
2379,503.0,9_28_33_8064
2380,501.0,9_28_33_8066
2381,501.0,9_28_33_8070
2382,501.0,9_28_33_8072
2383,501.0,9_28_33_8075
2384,503.0,9_28_33_8077
2385,503.0,9_28_33_8079
2386,502.0,9_28_33_8083
2387,503.0,9_28_33_8085
2388,501.0,9_28_33_8087
2389,501.0,9_28_33_8091
2390,502.0,9_28_33_8093
2391,502.0,9_28_33_8095
2392,503.0,9_28_33_8096
2393,502.0,9_28_33_8100
2394,503.0,9_28_33_8104
2395,502.0,9_28_33_8105
2396,501.0,9_28_33_8108
2397,501.0,9_28_33_8112
2398,502.0,9_28_33_8113
2399,502.0,9_28_33_8116
2400,502.0,9_28_33_8120
2401,502.0,9_28_33_8121
2402,503.0,9_28_33_8124
2403,502.0,9_28_33_8126
2404,501.0,9_28_33_8128
2405,501.0,9_28_33_8132
2406,502.0,9_28_33_8134
2407,502.0,9_28_33_8136
2408,502.0,9_28_33_8141
2409,502.0,9_28_33_8143
2410,503.0,9_28_33_8144
2411,501.0,9_28_33_8149
2412,501.0,9_28_33_8150
2413,501.0,9_28_33_8152
2414,502.0,9_28_33_8155
2415,503.0,9_28_33_8157
2416,503.0,9_28_33_8161
2417,503.0,9_28_33_8163
2418,502.0,9_28_33_8165
2419,501.0,9_28_33_8168
2420,501.0,9_28_33_8170
2421,502.0,9_28_33_8173
2422,502.0,9_28_33_8178
2423,502.0,9_28_33_8179
2424,503.0,9_28_33_8181
2425,503.0,9_28_33_8183
2426,502.0,9_28_33_8186
2427,501.0,9_28_33_8189
2428,501.0,9_28_33_8191
2429,502.0,9_28_33_8194
2430,502.0,9_28_33_8198
2431,503.0,9_28_33_8199
2432,503.0,9_28_33_8201
2433,502.0,9_28_33_8206
2434,502