position,GSR_Reading,Time_Stamp
0,NaN,8_29_46_558
1,502.0,8_29_46_572
2,5202.0,8_29_46_589
3,502.0,8_29_46_605
4,502.0,8_29_46_621
5,502.0,8_29_46_639
6,502.0,8_29_46_655
7,502.0,8_29_46_671
8,502.0,8_29_46_688
9,502.0,8_29_46_705
10,502.0,8_29_46_722
11,501.0,8_29_46_739
12,501.0,8_29_46_755
13,503.0,8_29_46_772
14,502.0,8_29_46_789
15,502.0,8_29_46_806
16,502.0,8_29_46_822
17,501.0,8_29_47_839
18,501.0,8_29_47_855
19,502.0,8_29_47_872
20,502.0,8_29_47_889
21,502.0,8_29_47_905
22,NaN,8_29_47_922
23,502.0,8_29_47_939
24,502.0,8_29_47_956
25,502.0,8_29_47_972
26,502.0,8_29_47_989
27,502.0,8_29_47_1006
28,502.0,8_29_47_1021
29,502.0,8_29_47_1038
30,502.0,8_29_47_1055
31,502.0,8_29_47_1072
32,502.0,8_29_47_1088
33,502.0,8_29_47_1105
34,502.0,8_29_47_1122
35,502.0,8_29_47_1138
36,502.0,8_29_47_1155
37,501.0,8_29_47_1171
38,501.0,8_29_47_1190
39,503.0,8_29_47_1206
40,502.0,8_29_47_1223
41,502.0,8_29_47_1240
42,502.0,8_29_47_1257
43,501.0,8_29_47_1273
44,501.0,8_29_47_1289
45,502.0,8_29_47_1306
46,502.0,8_29_47_1322
47,502.0,8_29_47_1339
48,NaN,8_29_48_1890
49,503.0,8_29_48_1906
50,503.0,8_29_48_1923
51,503.0,8_29_48_1940
52,502.0,8_29_48_1956
53,503.0,8_29_48_1973
54,502.0,8_29_48_1990
55,502.0,8_29_48_2006
56,503.0,8_29_48_2023
57,503.0,8_29_48_2039
58,503.0,8_29_48_2056
59,503.0,8_29_48_2073
60,504.0,8_29_48_2089
61,503.0,8_29_48_2106
62,503.0,8_29_48_2124
63,503.0,8_29_48_2139
64,502.0,8_29_48_2156
65,503.0,8_29_48_2173
66,503.0,8_29_48_2189
67,503.0,8_29_48_2207
68,503.0,8_29_48_2223
69,503.0,8_29_48_2239
70,503.0,8_29_48_2256
71,503.0,8_29_48_2272
72,502.0,8_29_48_2290
73,503.0,8_29_48_2306
74,503.0,8_29_48_2323
75,503.0,8_29_48_2340
76,502.0,8_29_48_2356
77,502.0,8_29_48_2373
78,503.0,8_29_48_2390
79,502.0,8_29_48_2406
80,502.0,8_29_48_2423
81,502.0,8_29_48_2440
82,503.0,8_29_48_2457
83,503.0,8_29_48_2473
84,502.0,8_29_48_2490
85,503.0,8_29_48_2506
86,502.0,8_29_48_2522
87,502.0,8_29_48_2539
88,502.0,8_29_48_2556
89,502.0,8_29_48_2573
90,503.0,8_29_48_2590
91,503.0,8_29_48_2606
92,503.0,8_29_48_2623
93,503.0,8_29_48_2639
94,502.0,8_29_48_2656
95,501.0,8_29_48_2673
96,502.0,8_29_48_2690
97,502.0,8_29_48_2706
98,503.0,8_29_48_2723
99,502.0,8_29_48_2740
100,502.0,8_29_48_2757
101,503.0,8_29_48_2773
102,502.0,8_29_48_2790
103,502.0,8_29_48_2807
104,502.0,8_29_48_2823
105,503.0,8_29_49_2840
106,502.0,8_29_49_2856
107,502.0,8_29_49_2873
108,502.0,8_29_49_2889
109,502.0,8_29_49_2906
110,502.0,8_29_49_2923
111,502.0,8_29_49_2939
112,502.0,8_29_49_2956
113,502.0,8_29_49_2973
114,503.0,8_29_49_2990
115,503.0,8_29_49_3007
116,502.0,8_29_49_3022
117,502.0,8_29_49_3039
118,502.0,8_29_49_3056
119,502.0,8_29_49_3073
120,503.0,8_29_49_3089
121,502.0,8_29_49_3106
122,502.0,8_29_49_3123
123,502.0,8_29_49_3139
124,503.0,8_29_49_3156
125,501.0,8_29_49_3173
126,501.0,8_29_49_3190
127,501.0,8_29_49_3217
128,503.0,8_29_49_3233
129,502.0,8_29_49_3250
130,502.0,8_29_49_3267
131,503.0,8_29_49_3283
132,502.0,8_29_49_3300
133,501.0,8_29_49_3317
134,501.0,8_29_49_3334
135,502.0,8_29_49_3349
136,503.0,8_29_49_3367
137,503.0,8_29_49_3383
138,502.0,8_29_49_3400
139,502.0,8_29_49_3417
140,501.0,8_29_49_3433
141,501.0,8_29_49_3449
142,501.0,8_29_49_3466
143,503.0,8_29_49_3483
144,502.0,8_29_49_3500
145,502.0,8_29_49_3516
146,502.0,8_29_49_3533
147,503.0,8_29_49_3550
148,501.0,8_29_49_3567
149,502.0,8_29_49_3584
150,502.0,8_29_49_3600
151,502.0,8_29_49_3616
152,502.0,8_29_49_3634
153,502.0,8_29_49_3649
154,502.0,8_29_49_3667
155,503.0,8_29_49_3683
156,501.0,8_29_49_3700
157,502.0,8_29_49_3716
158,502.0,8_29_49_3734
159,503.0,8_29_49_3750
160,502.0,8_29_49_3766
161,502.0,8_29_49_3783
162,502.0,8_29_49_3800
163,502.0,8_29_49_3816
164,501.0,8_29_50_3834
165,502.0,8_29_50_3849
166,502.0,8_29_50_3866
167,502.0,8_29_50_3883
168,502.0,8_29_50_3900
169,502.0,8_29_50_3916
170,502.0,8_29_50_3934
171,501.0,8_29_50_3950
172,501.0,8_29_50_3967
173,502.0,8_29_50_3984
174,502.0,8_29_50_4000
175,502.0,8_29_50_4017
176,502.0,8_29_50_4033
177,502.0,8_29_50_4050
178,502.0,8_29_50_4066
179,501.0,8_29_50_4083
180,501.0,8_29_50_4100
181,502.0,8_29_50_4117
182,502.0,8_29_50_4133
183,502.0,8_29_50_4150
184,502.0,8_29_50_4166
185,503.0,8_29_50_4183
186,502.0,8_29_50_4202
187,501.0,8_29_50_4216
188,502.0,8_29_50_4233
189,502.0,8_29_50_4249
190,502.0,8_29_50_4266
191,502.0,8_29_50_4283
192,502.0,8_29_50_4300
193,502.0,8_29_50_4317
194,502.0,8_29_50_4333
195,502.0,8_29_50_4350
196,502.0,8_29_50_4367
197,502.0,8_29_50_4383
198,503.0,8_29_50_4399
199,502.0,8_29_50_4417
200,502.0,8_29_50_4434
201,502.0,8_29_50_4450
202,501.0,8_29_50_4467
203,501.0,8_29_50_4483
204,502.0,8_29_50_4500
205,503.0,8_29_50_4517
206,503.0,8_29_50_4533
207,502.0,8_29_50_4550
208,503.0,8_29_50_4567
209,501.0,8_29_50_4583
210,501.0,8_29_50_4600
211,501.0,8_29_50_4616
212,502.0,8_29_50_4633
213,502.0,8_29_50_4650
214,503.0,8_29_50_4667
215,502.0,8_29_50_4684
216,502.0,8_29_50_4700
217,501.0,8_29_50_4716
218,501.0,8_29_50_4733
219,502.0,8_29_50_4750
220,502.0,8_29_50_4767
221,503.0,8_29_50_4784
222,502.0,8_29_50_4800
223,502.0,8_29_50_4817
224,502.0,8_29_51_4833
225,501.0,8_29_51_4850
226,501.0,8_29_51_4866
227,502.0,8_29_51_4883
228,502.0,8_29_51_4900
229,501.0,8_29_51_4916
230,502.0,8_29_51_4933
231,502.0,8_29_51_4950
232,502.0,8_29_51_4967
233,501.0,8_29_51_4983
234,502.0,8_29_51_5000
235,502.0,8_29_51_5017
236,502.0,8_29_51_5033
237,502.0,8_29_51_5050
238,502.0,8_29_51_5067
239,502.0,8_29_51_5084
240,502.0,8_29_51_5099
241,502.0,8_29_51_5117
242,502.0,8_29_51_5133
243,502.0,8_29_51_5150
244,502.0,8_29_51_5166
245,502.0,8_29_51_5183
246,502.0,8_29_51_5200
247,502.0,8_29_51_5217
248,501.0,8_29_51_5233
249,502.0,8_29_51_5250
250,501.0,8_29_51_5267
251,502.0,8_29_51_5283
252,502.0,8_29_51_5300
253,502.0,8_29_51_5316
254,502.0,8_29_51_5333
255,502.0,8_29_51_5350
256,501.0,8_29_51_5367
257,502.0,8_29_51_5383
258,502.0,8_29_51_5399
259,502.0,8_29_51_5417
260,502.0,8_29_51_5433
261,502.0,8_29_51_5450
262,502.0,8_29_51_5467
263,501.0,8_29_51_5483
264,501.0,8_29_51_5499
265,501.0,8_29_51_5516
266,502.0,8_29_51_5533
267,502.0,8_29_51_5550
268,502.0,8_29_51_5566
269,502.0,8_29_51_5583
270,502.0,8_29_51_5600
271,502.0,8_29_51_5617
272,501.0,8_29_51_5633
273,502.0,8_29_51_5650
274,503.0,8_29_51_5666
275,502.0,8_29_51_5683
276,502.0,8_29_51_5700
277,502.0,8_29_51_5716
278,502.0,8_29_51_5733
279,501.0,8_29_51_5750
280,501.0,8_29_51_5767
281,502.0,8_29_51_5783
282,502.0,8_29_51_5800
283,502.0,8_29_51_5816
284,502.0,8_29_52_5833
285,502.0,8_29_52_5849
286,502.0,8_29_52_5866
287,501.0,8_29_52_5883
288,501.0,8_29_52_5900
289,502.0,8_29_52_5917
290,502.0,8_29_52_5933
291,502.0,8_29_52_5950
292,502.0,8_29_52_5967
293,502.0,8_29_52_5983
294,502.0,8_29_52_6000
295,502.0,8_29_52_6017
296,502.0,8_29_52_6033
297,503.0,8_29_52_6050
298,502.0,8_29_52_6067
299,502.0,8_29_52_6084
300,502.0,8_29_52_6100
301,502.0,8_29_52_6117
302,501.0,8_29_52_6133
303,502.0,8_29_52_6150
304,502.0,8_29_52_6167
305,503.0,8_29_52_6183
306,502.0,8_29_52_6205
307,502.0,8_29_52_6222
308,502.0,8_29_52_6239
309,502.0,8_29_52_6255
310,502.0,8_29_52_6272
311,501.0,8_29_52_6288
312,502.0,8_29_52_6306
313,502.0,8_29_52_6322
314,502.0,8_29_52_6339
315,502.0,8_29_52_6355
316,502.0,8_29_52_6372
317,501.0,8_29_52_6389
318,501.0,8_29_52_6405
319,502.0,8_29_52_6422
320,502.0,8_29_52_6439
321,502.0,8_29_52_6455
322,502.0,8_29_52_6472
323,502.0,8_29_52_6489
324,502.0,8_29_52_6505
325,501.0,8_29_52_6522
326,501.0,8_29_52_6539
327,502.0,8_29_52_6555
328,502.0,8_29_52_6572
329,502.0,8_29_52_6589
330,502.0,8_29_52_6606
331,502.0,8_29_52_6622
332,502.0,8_29_52_6638
333,501.0,8_29_52_6656
334,502.0,8_29_52_6672
335,502.0,8_29_52_6689
336,502.0,8_29_52_6705
337,502.0,8_29_52_6722
338,502.0,8_29_52_6738
339,502.0,8_29_52_6756
340,502.0,8_29_52_6772
341,501.0,8_29_52_6789
342,502.0,8_29_52_6805
343,502.0,8_29_52_6822
344,502.0,8_29_53_6839
345,502.0,8_29_53_6856
346,502.0,8_29_53_6872
347,502.0,8_29_53_6889
348,501.0,8_29_53_6906
349,502.0,8_29_53_6922
350,502.0,8_29_53_6939
351,502.0,8_29_53_6955
352,502.0,8_29_53_6973
353,502.0,8_29_53_6989
354,502.0,8_29_53_7006
355,502.0,8_29_53_7023
356,501.0,8_29_53_7038
357,502.0,8_29_53_7056
358,501.0,8_29_53_7072
359,503.0,8_29_53_7088
360,502.0,8_29_53_7106
361,502.0,8_29_53_7122
362,502.0,8_29_53_7139
363,502.0,8_29_53_7156
364,501.0,8_29_53_7173
365,502.0,8_29_53_7188
366,502.0,8_29_53_7205
367,502.0,8_29_53_7222
368,502.0,8_29_53_7239
369,502.0,8_29_53_7255
370,502.0,8_29_53_7272
371,502.0,8_29_53_7288
372,501.0,8_29_53_7305
373,501.0,8_29_53_7322
374,502.0,8_29_53_7339
375,502.0,8_29_53_7356
376,502.0,8_29_53_7372
377,502.0,8_29_53_7389
378,502.0,8_29_53_7405
379,502.0,8_29_53_7422
380,501.0,8_29_53_7439
381,502.0,8_29_53_7456
382,502.0,8_29_53_7472
383,502.0,8_29_53_7489
384,502.0,8_29_53_7505
385,503.0,8_29_53_7522
386,501.0,8_29_53_7539
387,501.0,8_29_53_7555
388,502.0,8_29_53_7572
389,502.0,8_29_53_7589
390,502.0,8_29_53_7605
391,502.0,8_29_53_7622
392,502.0,8_29_53_7639
393,502.0,8_29_53_7656
394,502.0,8_29_53_7672
395,501.0,8_29_53_7689
396,502.0,8_29_53_7706
397,502.0,8_29_53_7722
398,502.0,8_29_53_7739
399,502.0,8_29_53_7755
400,502.0,8_29_53_7772
401,502.0,8_29_53_7789
402,501.0,8_29_53_7805
403,501.0,8_29_53_7822
404,501.0,8_29_54_7838
405,503.0,8_29_54_7855
406,502.0,8_29_54_7872
407,502.0,8_29_54_7889
408,502.0,8_29_54_7906
409,502.0,8_29_54_7922
410,501.0,8_29_54_7938
411,502.0,8_29_54_7955
412,502.0,8_29_54_7972
413,502.0,8_29_54_7988
414,502.0,8_29_54_8006
415,502.0,8_29_54_8022
416,502.0,8_29_54_8039
417,501.0,8_29_54_8056
418,501.0,8_29_54_8072
419,501.0,8_29_54_8089
420,502.0,8_29_54_8106
421,502.0,8_29_54_8122
422,502.0,8_29_54_8138
423,502.0,8_29_54_8155
424,502.0,8_29_54_8172
425,502.0,8_29_54_8189
426,501.0,8_29_54_8206
427,501.0,8_29_54_8222
428,503.0,8_29_54_8239
429,502.0,8_29_54_8256
430,502.0,8_29_54_8272
431,502.0,8_29_54_8288
432,502.0,8_29_54_8305
433,501.0,8_29_54_8322
434,502.0,8_29_54_8339
435,501.0,8_29_54_8356
436,503.0,8_29_54_8372
437,502.0,8_29_54_8389
438,502.0,8_29_54_8405
439,502.0,8_29_54_8422
440,501.0,8_29_54_8439
441,501.0,8_29_54_8456
442,502.0,8_29_54_8472
443,502.0,8_29_54_8489
444,502.0,8_29_54_8506
445,502.0,8_29_54_8523
446,502.0,8_29_54_8539
447,502.0,8_29_54_8556
448,501.0,8_29_54_8573
449,501.0,8_29_54_8588
450,502.0,8_29_54_8605
451,503.0,8_29_54_8622
452,503.0,8_29_54_8638
453,502.0,8_29_54_8655
454,502.0,8_29_54_8672
455,502.0,8_29_54_8688
456,502.0,8_29_54_8705
457,502.0,8_29_54_8722
458,502.0,8_29_54_8739
459,502.0,8_29_54_8756
460,502.0,8_29_54_8772
461,502.0,8_29_54_8788
462,502.0,8_29_54_8805
463,502.0,8_29_54_8822
464,501.0,8_29_55_8839
465,501.0,8_29_55_8855
466,502.0,8_29_55_8872
467,502.0,8_29_55_8889
468,502.0,8_29_55_8906
469,502.0,8_29_55_8922
470,502.0,8_29_55_8939
471,501.0,8_29_55_8955
472,501.0,8_29_55_8972
473,501.0,8_29_55_8989
474,502.0,8_29_55_9006
475,502.0,8_29_55_9022
476,502.0,8_29_55_9038
477,502.0,8_29_55_9055
478,502.0,8_29_55_9072
479,501.0,8_29_55_9089
480,501.0,8_29_55_9106
481,501.0,8_29_55_9122
482,503.0,8_29_55_9138
483,502.0,8_29_55_9155
484,502.0,8_29_55_9172
485,502.0,8_29_55_9198
486,501.0,8_29_55_9215
487,501.0,8_29_55_9232
488,501.0,8_29_55_9249
489,502.0,8_29_55_9265
490,502.0,8_29_55_9281
491,502.0,8_29_55_9298
492,502.0,8_29_55_9315
493,502.0,8_29_55_9332
494,502.0,8_29_55_9348
495,502.0,8_29_55_9365
496,501.0,8_29_55_9382
497,502.0,8_29_55_9398
498,502.0,8_29_55_9414
499,502.0,8_29_55_9432
500,502.0,8_29_55_9449
501,502.0,8_29_55_9465
502,502.0,8_29_55_9481
503,501.0,8_29_55_9498
504,502.0,8_29_55_9515
505,502.0,8_29_55_9531
506,502.0,8_29_55_9548
507,502.0,8_29_55_9565
508,503.0,8_29_55_9582
509,502.0,8_29_55_9598
510,501.0,8_29_55_9615
511,501.0,8_29_55_9632
512,502.0,8_29_55_9648
513,502.0,8_29_55_9665
514,503.0,8_29_55_9682
515,502.0,8_29_55_9699
516,503.0,8_29_55_9715
517,501.0,8_29_55_9732
518,502.0,8_29_55_9748
519,501.0,8_29_55_9765
520,502.0,8_29_55_9781
521,502.0,8_29_55_9798
522,502.0,8_29_55_9815
523,502.0,8_29_56_9832
524,502.0,8_29_56_9848
525,501.0,8_29_56_9865
526,501.0,8_29_56_9882
527,502.0,8_29_56_9899
528,502.0,8_29_56_9915
529,502.0,8_29_56_9932
530,502.0,8_29_56_9948
531,502.0,8_29_56_9965
532,502.0,8_29_56_9982
533,502.0,8_29_56_9999
534,502.0,8_29_56_10015
535,502.0,8_29_56_10032
536,502.0,8_29_56_10048
537,502.0,8_29_56_10065
538,502.0,8_29_56_10082
539,502.0,8_29_56_10098
540,501.0,8_29_56_10115
541,501.0,8_29_56_10132
542,502.0,8_29_56_10148
543,502.0,8_29_56_10165
544,502.0,8_29_56_10182
545,502.0,8_29_56_10198
546,502.0,8_29_56_10215
547,502.0,8_29_56_10232
548,502.0,8_29_56_10248
549,501.0,8_29_56_10265
550,502.0,8_29_56_10282
551,503.0,8_29_56_10298
552,503.0,8_29_56_10315
553,502.0,8_29_56_10332
554,502.0,8_29_56_10348
555,502.0,8_29_56_10365
556,501.0,8_29_56_10382
557,501.0,8_29_56_10399
558,502.0,8_29_56_10415
559,502.0,8_29_56_10431
560,502.0,8_29_56_10448
561,502.0,8_29_56_10465
562,502.0,8_29_56_10482
563,502.0,8_29_56_10498
564,501.0,8_29_56_10515
565,502.0,8_29_56_10531
566,502.0,8_29_56_10549
567,502.0,8_29_56_10566
568,502.0,8_29_56_10581
569,502.0,8_29_56_10598
570,502.0,8_29_56_10615
571,501.0,8_29_56_10632
572,501.0,8_29_56_10649
573,502.0,8_29_56_10666
574,502.0,8_29_56_10681
575,502.0,8_29_56_10698
576,502.0,8_29_56_10715
577,502.0,8_29_56_10731
578,502.0,8_29_56_10748
579,501.0,8_29_56_10765
580,502.0,8_29_56_10781
581,502.0,8_29_56_10798
582,502.0,8_29_56_10815
583,502.0,8_29_57_10832
584,502.0,8_29_57_10849
585,502.0,8_29_57_10865
586,502.0,8_29_57_10882
587,502.0,8_29_57_10898
588,502.0,8_29_57_10915
589,502.0,8_29_57_10932
590,502.0,8_29_57_10948
591,502.0,8_29_57_10965
592,502.0,8_29_57_10982
593,502.0,8_29_57_10999
594,502.0,8_29_57_11015
595,501.0,8_29_57_11032
596,502.0,8_29_57_11048
597,503.0,8_29_57_11065
598,502.0,8_29_57_11082
599,502.0,8_29_57_11099
600,502.0,8_29_57_11115
601,502.0,8_29_57_11132
602,502.0,8_29_57_11149
603,501.0,8_29_57_11165
604,501.0,8_29_57_11182
605,503.0,8_29_57_11210
606,502.0,8_29_57_11227
607,502.0,8_29_57_11243
608,502.0,8_29_57_11260
609,501.0,8_29_57_11277
610,501.0,8_29_57_11294
611,502.0,8_29_57_11310
612,502.0,8_29_57_11327
613,503.0,8_29_57_11344
614,502.0,8_29_57_11360
615,502.0,8_29_57_11376
616,502.0,8_29_57_11393
617,501.0,8_29_57_11410
618,501.0,8_29_57_11426
619,502.0,8_29_57_11443
620,502.0,8_29_57_11460
621,503.0,8_29_57_11477
622,502.0,8_29_57_11493
623,502.0,8_29_57_11510
624,502.0,8_29_57_11527
625,501.0,8_29_57_11544
626,501.0,8_29_57_11560
627,501.0,8_29_57_11576
628,503.0,8_29_57_11593
629,502.0,8_29_57_11610
630,502.0,8_29_57_11627
631,502.0,8_29_57_11643
632,502.0,8_29_57_11660
633,501.0,8_29_57_11676
634,502.0,8_29_57_11693
635,502.0,8_29_57_11710
636,502.0,8_29_57_11727
637,502.0,8_29_57_11743
638,502.0,8_29_57_11760
639,503.0,8_29_57_11777
640,501.0,8_29_57_11793
641,501.0,8_29_57_11810
642,502.0,8_29_58_11827
643,502.0,8_29_58_11843
644,502.0,8_29_58_11860
645,502.0,8_29_58_11876
646,502.0,8_29_58_11893
647,503.0,8_29_58_11910
648,501.0,8_29_58_11927
649,501.0,8_29_58_11943
650,502.0,8_29_58_11960
651,503.0,8_29_58_11977
652,502.0,8_29_58_11993
653,502.0,8_29_58_12010
654,502.0,8_29_58_12026
655,502.0,8_29_58_12043
656,501.0,8_29_58_12060
657,502.0,8_29_58_12076
658,502.0,8_29_58_12093
659,502.0,8_29_58_12110
660,502.0,8_29_58_12126
661,502.0,8_29_58_12143
662,502.0,8_29_58_12160
663,502.0,8_29_58_12177
664,501.0,8_29_58_12194
665,501.0,8_29_58_12210
666,503.0,8_29_58_12227
667,502.0,8_29_58_12243
668,502.0,8_29_58_12260
669,502.0,8_29_58_12276
670,502.0,8_29_58_12293
671,501.0,8_29_58_12310
672,501.0,8_29_58_12327
673,502.0,8_29_58_12343
674,502.0,8_29_58_12360
675,502.0,8_29_58_12377
676,502.0,8_29_58_12394
677,502.0,8_29_58_12410
678,502.0,8_29_58_12427
679,502.0,8_29_58_12443
680,502.0,8_29_58_12460
681,501.0,8_29_58_12477
682,502.0,8_29_58_12494
683,502.0,8_29_58_12510
684,502.0,8_29_58_12526
685,502.0,8_29_58_12543
686,502.0,8_29_58_12560
687,501.0,8_29_58_12577
688,502.0,8_29_58_12594
689,502.0,8_29_58_12610
690,503.0,8_29_58_12626
691,502.0,8_29_58_12643
692,502.0,8_29_58_12660
693,502.0,8_29_58_12677
694,501.0,8_29_58_12694
695,501.0,8_29_58_12710
696,502.0,8_29_58_12727
697,502.0,8_29_58_12743
698,502.0,8_29_58_12760
699,502.0,8_29_58_12777
700,502.0,8_29_58_12794
701,502.0,8_29_58_12810
702,501.0,8_29_59_12827
703,501.0,8_29_59_12843
704,502.0,8_29_59_12860
705,503.0,8_29_59_12877
706,503.0,8_29_59_12894
707,502.0,8_29_59_12910
708,502.0,8_29_59_12927
709,502.0,8_29_59_12944
710,501.0,8_29_59_12960
711,502.0,8_29_59_12976
712,502.0,8_29_59_12993
713,503.0,8_29_59_13010
714,502.0,8_29_59_13027
715,502.0,8_29_59_13043
716,503.0,8_29_59_13060
717,502.0,8_29_59_13076
718,501.0,8_29_59_13093
719,501.0,8_29_59_13110
720,502.0,8_29_59_13127
721,502.0,8_29_59_13144
722,502.0,8_29_59_13160
723,502.0,8_29_59_13176
724,503.0,8_29_59_13193
725,502.0,8_29_59_13211
726,501.0,8_29_59_13226
727,502.0,8_29_59_13243
728,502.0,8_29_59_13260
729,503.0,8_29_59_13277
730,502.0,8_29_59_13294
731,502.0,8_29_59_13310
732,501.0,8_29_59_13326
733,501.0,8_29_59_13343
734,502.0,8_29_59_13360
735,502.0,8_29_59_13377
736,502.0,8_29_59_13394
737,502.0,8_29_59_13410
738,502.0,8_29_59_13427
739,502.0,8_29_59_13444
740,501.0,8_29_59_13460
741,502.0,8_29_59_13477
742,502.0,8_29_59_13493
743,503.0,8_29_59_13510
744,502.0,8_29_59_13527
745,502.0,8_29_59_13543
746,502.0,8_29_59_13560
747,502.0,8_29_59_13577
748,501.0,8_29_59_13594
749,501.0,8_29_59_13611
750,502.0,8_29_59_13626
751,503.0,8_29_59_13643
752,502.0,8_29_59_13660
753,502.0,8_29_59_13677
754,502.0,8_29_59_13693
755,502.0,8_29_59_13710
756,501.0,8_29_59_13727
757,501.0,8_29_59_13744
758,502.0,8_29_59_13760
759,502.0,8_29_59_13777
760,502.0,8_29_59_13794
761,502.0,8_29_59_13810
762,502.0,8_30_0_13827
763,502.0,8_30_0_13844
764,502.0,8_30_0_13860
765,501.0,8_30_0_13877
766,502.0,8_30_0_13894
767,502.0,8_30_0_13911
768,502.0,8_30_0_13926
769,502.0,8_30_0_13943
770,502.0,8_30_0_13960
771,501.0,8_30_0_13977
772,502.0,8_30_0_13994
773,502.0,8_30_0_14010
774,502.0,8_30_0_14027
775,502.0,8_30_0_14043
776,502.0,8_30_0_14060
777,502.0,8_30_0_14077
778,502.0,8_30_0_14094
779,501.0,8_30_0_14110
780,501.0,8_30_0_14127
781,502.0,8_30_0_14144
782,503.0,8_30_0_14160
783,502.0,8_30_0_14177
784,502.0,8_30_0_14194
785,502.0,8_30_0_14210
786,501.0,8_30_0_14227
787,501.0,8_30_0_14244
788,501.0,8_30_0_14260
789,502.0,8_30_0_14277
790,502.0,8_30_0_14293
791,502.0,8_30_0_14311
792,502.0,8_30_0_14326
793,502.0,8_30_0_14343
794,502.0,8_30_0_14361
795,501.0,8_30_0_14377
796,501.0,8_30_0_14393
797,502.0,8_30_0_14410
798,502.0,8_30_0_14426
799,502.0,8_30_0_14444
800,502.0,8_30_0_14460
801,502.0,8_30_0_14477
802,502.0,8_30_0_14493
803,501.0,8_30_0_14510
804,502.0,8_30_0_14527
805,503.0,8_30_0_14543
806,502.0,8_30_0_14560
807,502.0,8_30_0_14577
808,502.0,8_30_0_14593
809,501.0,8_30_0_14610
810,501.0,8_30_0_14627
811,501.0,8_30_0_14643
812,502.0,8_30_0_14660
813,502.0,8_30_0_14677
814,502.0,8_30_0_14694
815,502.0,8_30_0_14710
816,502.0,8_30_0_14726
817,501.0,8_30_0_14743
818,502.0,8_30_0_14760
819,502.0,8_30_0_14777
820,502.0,8_30_0_14793
821,502.0,8_30_0_14810
822,502.0,8_30_1_14827
823,502.0,8_30_1_14843
824,502.0,8_30_1_14860
825,502.0,8_30_1_14876
826,501.0,8_30_1_14894
827,502.0,8_30_1_14910
828,502.0,8_30_1_14927
829,502.0,8_30_1_14944
830,502.0,8_30_1_14960
831,502.0,8_30_1_14977
832,502.0,8_30_1_14994
833,502.0,8_30_1_15010
834,501.0,8_30_1_15026
835,501.0,8_30_1_15043
836,502.0,8_30_1_15060
837,502.0,8_30_1_15077
838,503.0,8_30_1_15094
839,502.0,8_30_1_15110
840,501.0,8_30_1_15127
841,501.0,8_30_1_15144
842,501.0,8_30_1_15161
843,502.0,8_30_1_15176
844,502.0,8_30_1_15193
845,503.0,8_30_1_15210
846,502.0,8_30_1_15227
847,503.0,8_30_1_15244
848,502.0,8_30_1_15261
849,501.0,8_30_1_15276
850,502.0,8_30_1_15293
851,502.0,8_30_1_15310
852,503.0,8_30_1_15327
853,502.0,8_30_1_15344
854,502.0,8_30_1_15360
855,502.0,8_30_1_15377
856,502.0,8_30_1_15394
857,501.0,8_30_1_15410
858,502.0,8_30_1_15427
859,502.0,8_30_1_15443
860,502.0,8_30_1_15460
861,502.0,8_30_1_15477
862,501.0,8_30_1_15494
863,502.0,8_30_1_15510
864,501.0,8_30_1_15527
865,501.0,8_30_1_15543
866,503.0,8_30_1_15560
867,502.0,8_30_1_15576
868,502.0,8_30_1_15593
869,502.0,8_30_1_15611
870,502.0,8_30_1_15627
871,501.0,8_30_1_15643
872,502.0,8_30_1_15660
873,502.0,8_30_1_15677
874,502.0,8_30_1_15693
875,502.0,8_30_1_15710
876,502.0,8_30_1_15727
877,502.0,8_30_1_15743
878,502.0,8_30_1_15760
879,501.0,8_30_1_15777
880,501.0,8_30_1_15794
881,502.0,8_30_1_15810
882,503.0,8_30_2_15827
883,502.0,8_30_2_15843
884,502.0,8_30_2_15861
885,502.0,8_30_2_15877
886,501.0,8_30_2_15894
887,501.0,8_30_2_15911
888,501.0,8_30_2_15927
889,502.0,8_30_2_15944
890,502.0,8_30_2_15961
891,502.0,8_30_2_15977
892,502.0,8_30_2_15993
893,502.0,8_30_2_16010
894,502.0,8_30_2_16027
895,501.0,8_30_2_16044
896,502.0,8_30_2_16061
897,502.0,8_30_2_16077
898,502.0,8_30_2_16093
899,502.0,8_30_2_16110
900,502.0,8_30_2_16130
901,502.0,8_30_2_16144
902,501.0,8_30_2_16161
903,502.0,8_30_2_16177
904,501.0,8_30_2_16193
905,502.0,8_30_2_16217
906,502.0,8_30_2_16234
907,502.0,8_30_2_16250
908,502.0,8_30_2_16267
909,502.0,8_30_2_16284
910,501.0,8_30_2_16300
911,501.0,8_30_2_16318
912,502.0,8_30_2_16334
913,502.0,8_30_2_16351
914,502.0,8_30_2_16368
915,502.0,8_30_2_16384
916,502.0,8_30_2_16401
917,502.0,8_30_2_16417
918,501.0,8_30_2_16434
919,501.0,8_30_2_16450
920,502.0,8_30_2_16468
921,503.0,8_30_2_16484
922,503.0,8_30_2_16501
923,502.0,8_30_2_16518
924,503.0,8_30_2_16533
925,501.0,8_30_2_16550
926,501.0,8_30_2_16567
927,501.0,8_30_2_16584
928,503.0,8_30_2_16600
929,502.0,8_30_2_16618
930,503.0,8_30_2_16634
931,502.0,8_30_2_16650
932,501.0,8_30_2_16668
933,501.0,8_30_2_16684
934,502.0,8_30_2_16701
935,502.0,8_30_2_16718
936,503.0,8_30_2_16734
937,502.0,8_30_2_16751
938,502.0,8_30_2_16768
939,502.0,8_30_2_16784
940,502.0,8_30_2_16801
941,501.0,8_30_2_16818
942,502.0,8_30_3_16834
943,502.0,8_30_3_16851
944,502.0,8_30_3_16867
945,502.0,8_30_3_16884
946,502.0,8_30_3_16908
947,502.0,8_30_3_16925
948,501.0,8_30_3_16942
949,501.0,8_30_3_16958
950,502.0,8_30_3_16975
951,503.0,8_30_3_16991
952,502.0,8_30_3_17009
953,502.0,8_30_3_17025
954,502.0,8_30_3_17041
955,502.0,8_30_3_17058
956,502.0,8_30_3_17075
957,502.0,8_30_3_17091
958,502.0,8_30_3_17108
959,503.0,8_30_3_17125
960,502.0,8_30_3_17141
961,502.0,8_30_3_17158
962,502.0,8_30_3_17175
963,502.0,8_30_3_17192
964,501.0,8_30_3_17208
965,502.0,8_30_3_17225
966,502.0,8_30_3_17242
967,502.0,8_30_3_17258
968,502.0,8_30_3_17275
969,502.0,8_30_3_17292
970,502.0,8_30_3_17308
971,501.0,8_30_3_17325
972,501.0,8_30_3_17342
973,502.0,8_30_3_17358
974,502.0,8_30_3_17375
975,502.0,8_30_3_17392
976,502.0,8_30_3_17409
977,503.0,8_30_3_17425
978,502.0,8_30_3_17442
979,502.0,8_30_3_17458
980,502.0,8_30_3_17475
981,502.0,8_30_3_17492
982,503.0,8_30_3_17509
983,502.0,8_30_3_17525
984,502.0,8_30_3_17541
985,502.0,8_30_3_17558
986,501.0,8_30_3_17575
987,501.0,8_30_3_17591
988,501.0,8_30_3_17608
989,502.0,8_30_3_17625
990,502.0,8_30_3_17641
991,502.0,8_30_3_17658
992,502.0,8_30_3_17675
993,502.0,8_30_3_17691
994,501.0,8_30_3_17709
995,501.0,8_30_3_17725
996,501.0,8_30_3_17742
997,502.0,8_30_3_17758
998,502.0,8_30_3_17775
999,502.0,8_30_3_17792
1000,502.0,8_30_3_17808
1001,502.0,8_30_3_17825
1002,502.0,8_30_4_17842
1003,502.0,8_30_4_17858
1004,502.0,8_30_4_17875
1005,503.0,8_30_4_17892
1006,502.0,8_30_4_17909
1007,502.0,8_30_4_17925
1008,501.0,8_30_4_17942
1009,502.0,8_30_4_17958
1010,501.0,8_30_4_17975
1011,502.0,8_30_4_17991
1012,502.0,8_30_4_18009
1013,502.0,8_30_4_18025
1014,502.0,8_30_4_18042
1015,502.0,8_30_4_18059
1016,502.0,8_30_4_18075
1017,502.0,8_30_4_18092
1018,501.0,8_30_4_18109
1019,501.0,8_30_4_18124
1020,503.0,8_30_4_18141
1021,502.0,8_30_4_18158
1022,502.0,8_30_4_18175
1023,502.0,8_30_4_18192
1024,502.0,8_30_4_18208
1025,501.0,8_30_4_18225
1026,502.0,8_30_4_18241
1027,501.0,8_30_4_18258
1028,503.0,8_30_4_18275
1029,502.0,8_30_4_18292
1030,502.0,8_30_4_18309
1031,502.0,8_30_4_18325
1032,502.0,8_30_4_18342
1033,501.0,8_30_4_18358
1034,502.0,8_30_4_18375
1035,502.0,8_30_4_18392
1036,502.0,8_30_4_18408
1037,502.0,8_30_4_18425
1038,502.0,8_30_4_18442
1039,502.0,8_30_4_18458
1040,501.0,8_30_4_18475
1041,502.0,8_30_4_18491
1042,501.0,8_30_4_18508
1043,502.0,8_30_4_18525
1044,502.0,8_30_4_18541
1045,502.0,8_30_4_18559
1046,502.0,8_30_4_18575
1047,502.0,8_30_4_18591
1048,502.0,8_30_4_18609
1049,502.0,8_30_4_18625
1050,502.0,8_30_4_18641
1051,502.0,8_30_4_18658
1052,503.0,8_30_4_18675
1053,502.0,8_30_4_18692
1054,502.0,8_30_4_18709
1055,502.0,8_30_4_18725
1056,501.0,8_30_4_18742
1057,502.0,8_30_4_18759
1058,502.0,8_30_4_18775
1059,502.0,8_30_4_18792
1060,501.0,8_30_4_18809
1061,502.0,8_30_4_18824
1062,502.0,8_30_5_18841
1063,501.0,8_30_5_18859
1064,501.0,8_30_5_18875
1065,502.0,8_30_5_18892
1066,502.0,8_30_5_18908
1067,502.0,8_30_5_18925
1068,502.0,8_30_5_18942
1069,502.0,8_30_5_18958
1070,502.0,8_30_5_18975
1071,501.0,8_30_5_18991
1072,501.0,8_30_5_19009
1073,501.0,8_30_5_19025
1074,502.0,8_30_5_19041
1075,502.0,8_30_5_19058
1076,502.0,8_30_5_19075
1077,502.0,8_30_5_19092
1078,502.0,8_30_5_19109
1079,501.0,8_30_5_19124
1080,501.0,8_30_5_19141
1081,501.0,8_30_5_19159
1082,503.0,8_30_5_19179
1083,503.0,8_30_5_19192
1084,502.0,8_30_5_19208
1085,502.0,8_30_5_19225
1086,501.0,8_30_5_19241
1087,501.0,8_30_5_19258
1088,501.0,8_30_5_19275
1089,502.0,8_30_5_19291
1090,502.0,8_30_5_19308
1091,502.0,8_30_5_19325
1092,502.0,8_30_5_19341
1093,502.0,8_30_5_19358
1094,502.0,8_30_5_19375
1095,501.0,8_30_5_19392
1096,502.0,8_30_5_19409
1097,503.0,8_30_5_19425
1098,502.0,8_30_5_19442
1099,502.0,8_30_5_19458
1100,502.0,8_30_5_19475
1101,501.0,8_30_5_19492
1102,501.0,8_30_5_19508
1103,502.0,8_30_5_19525
1104,502.0,8_30_5_19542
1105,502.0,8_30_5_19559
1106,502.0,8_30_5_19575
1107,502.0,8_30_5_19591
1108,502.0,8_30_5_19608
1109,502.0,8_30_5_19625
1110,502.0,8_30_5_19641
1111,501.0,8_30_5_19659
1112,502.0,8_30_5_19674
1113,502.0,8_30_5_19692
1114,502.0,8_30_5_19708
1115,502.0,8_30_5_19725
1116,503.0,8_30_5_19741
1117,502.0,8_30_5_19758
1118,501.0,8_30_5_19775
1119,502.0,8_30_5_19792
1120,502.0,8_30_5_19808
1121,502.0,8_30_5_19825
1122,502.0,8_30_6_19842
1123,502.0,8_30_6_19858
1124,502.0,8_30_6_19875
1125,501.0,8_30_6_19891
1126,501.0,8_30_6_19908
1127,502.0,8_30_6_19925
1128,503.0,8_30_6_19942
1129,502.0,8_30_6_19959
1130,502.0,8_30_6_19975
1131,502.0,8_30_6_19991
1132,502.0,8_30_6_20008
1133,501.0,8_30_6_20025
1134,501.0,8_30_6_20042
1135,502.0,8_30_6_20059
1136,502.0,8_30_6_20075
1137,502.0,8_30_6_20092
1138,502.0,8_30_6_20108
1139,502.0,8_30_6_20125
1140,501.0,8_30_6_20142
1141,501.0,8_30_6_20158
1142,501.0,8_30_6_20175
1143,502.0,8_30_6_20191
1144,502.0,8_30_6_20208
1145,502.0,8_30_6_20225
1146,502.0,8_30_6_20241
1147,502.0,8_30_6_20259
1148,501.0,8_30_6_20275
1149,501.0,8_30_6_20292
1150,502.0,8_30_6_20308
1151,503.0,8_30_6_20325
1152,502.0,8_30_6_20341
1153,503.0,8_30_6_20359
1154,502.0,8_30_6_20375
1155,502.0,8_30_6_20391
1156,501.0,8_30_6_20409
1157,502.0,8_30_6_20425
1158,502.0,8_30_6_20441
1159,502.0,8_30_6_20458
1160,502.0,8_30_6_20475
1161,502.0,8_30_6_20492
1162,502.0,8_30_6_20509
1163,502.0,8_30_6_20525
1164,501.0,8_30_6_20542
1165,502.0,8_30_6_20559
1166,502.0,8_30_6_20575
1167,502.0,8_30_6_20592
1168,502.0,8_30_6_20609
1169,502.0,8_30_6_20625
1170,502.0,8_30_6_20642
1171,501.0,8_30_6_20658
1172,501.0,8_30_6_20675
1173,501.0,8_30_6_20691
1174,503.0,8_30_6_20709
1175,502.0,8_30_6_20725
1176,502.0,8_30_6_20742
1177,502.0,8_30_6_20758
1178,502.0,8_30_6_20775
1179,501.0,8_30_6_20792
1180,501.0,8_30_6_20808
1181,502.0,8_30_6_20825
1182,502.0,8_30_7_20842
1183,502.0,8_30_7_20858
1184,502.0,8_30_7_20875
1185,502.0,8_30_7_20892
1186,502.0,8_30_7_20908
1187,501.0,8_30_7_20925
1188,501.0,8_30_7_20942
1189,502.0,8_30_7_20959
1190,502.0,8_30_7_20975
1191,502.0,8_30_7_20992
1192,502.0,8_30_7_21008
1193,502.0,8_30_7_21025
1194,501.0,8_30_7_21042
1195,501.0,8_30_7_21058
1196,502.0,8_30_7_21075
1197,502.0,8_30_7_21091
1198,503.0,8_30_7_21108
1199,502.0,8_30_7_21125
1200,502.0,8_30_7_21142
1201,502.0,8_30_7_21159
1202,501.0,8_30_7_21175
1203,501.0,8_30_7_21191
1204,502.0,8_30_7_21208
1205,503.0,8_30_7_21231
1206,502.0,8_30_7_21247
1207,502.0,8_30_7_21264
1208,502.0,8_30_7_21280
1209,502.0,8_30_7_21297
1210,502.0,8_30_7_21314
1211,502.0,8_30_7_21331
1212,502.0,8_30_7_21347
1213,502.0,8_30_7_21364
1214,502.0,8_30_7_21380
1215,502.0,8_30_7_21397
1216,502.0,8_30_7_21413
1217,501.0,8_30_7_21430
1218,501.0,8_30_7_21448
1219,501.0,8_30_7_21464
1220,502.0,8_30_7_21480
1221,503.0,8_30_7_21497
1222,503.0,8_30_7_21514
1223,502.0,8_30_7_21530
1224,502.0,8_30_7_21548
1225,501.0,8_30_7_21563
1226,501.0,8_30_7_21581
1227,502.0,8_30_7_21597
1228,503.0,8_30_7_21614
1229,502.0,8_30_7_21630
1230,502.0,8_30_7_21647
1231,502.0,8_30_7_21664
1232,502.0,8_30_7_21680
1233,501.0,8_30_7_21697
1234,501.0,8_30_7_21713
1235,502.0,8_30_7_21731
1236,502.0,8_30_7_21747
1237,502.0,8_30_7_21764
1238,502.0,8_30_7_21780
1239,502.0,8_30_7_21797
1240,501.0,8_30_7_21813
1241,501.0,8_30_8_21830
1242,501.0,8_30_8_21847
1243,502.0,8_30_8_21864
1244,502.0,8_30_8_21880
1245,502.0,8_30_8_21898
1246,502.0,8_30_8_21914
