position,GSR_Reading,Time_Stamp
0,301.0,9_26_11_556
1,NaN,9_26_11_573
2,500.0,9_26_11_587
3,500.0,9_26_11_604
4,501.0,9_26_11_621
5,502.0,9_26_11_638
6,502.0,9_26_11_654
7,501.0,9_26_11_671
8,501.0,9_26_11_688
9,500.0,9_26_11_705
10,500.0,9_26_11_721
11,500.0,9_26_11_738
12,501.0,9_26_11_755
13,501.0,9_26_11_772
14,NaN,9_26_11_788
15,501.0,9_26_11_805
16,501.0,9_26_11_821
17,501.0,9_26_11_838
18,501.0,9_26_11_854
19,500.0,9_26_11_871
20,500.0,9_26_11_888
21,500.0,9_26_11_904
22,501.0,9_26_11_921
23,501.0,9_26_11_938
24,501.0,9_26_11_955
25,501.0,9_26_11_972
26,501.0,9_26_11_988
27,500.0,9_26_11_1005
28,500.0,9_26_11_1021
29,501.0,9_26_11_1038
30,502.0,9_26_11_1055
31,502.0,9_26_11_1071
32,501.0,9_26_11_1088
33,501.0,9_26_11_1105
34,500.0,9_26_11_1121
35,500.0,9_26_11_1138
36,500.0,9_26_11_1155
37,501.0,9_26_11_1171
38,501.0,9_26_11_1188
39,NaN,9_26_11_1205
40,501.0,9_26_11_1222
41,501.0,9_26_11_1238
42,501.0,9_26_11_1254
43,501.0,9_26_11_1271
44,500.0,9_26_11_1288
45,500.0,9_26_11_1304
46,500.0,9_26_11_1321
47,501.0,9_26_11_1338
48,501.0,9_26_11_1354
49,501.0,9_26_11_1371
50,501.0,9_26_11_1387
51,501.0,9_26_11_1405
52,500.0,9_26_11_1421
53,500.0,9_26_11_1438
54,501.0,9_26_11_1455
55,502.0,9_26_11_1472
56,502.0,9_26_11_1487
57,501.0,9_26_11_1504
58,501.0,9_26_11_1521
59,500.0,9_26_12_1537
60,500.0,9_26_12_1555
61,500.0,9_26_12_1571
62,501.0,9_26_12_1587
63,501.0,9_26_12_1605
64,NaN,9_26_12_1888
65,503.0,9_26_12_1904
66,502.0,9_26_12_1921
67,502.0,9_26_12_1938
68,502.0,9_26_12_1955
69,502.0,9_26_12_1971
70,502.0,9_26_12_1988
71,502.0,9_26_12_2004
72,502.0,9_26_12_2021
73,502.0,9_26_12_2038
74,502.0,9_26_12_2054
75,502.0,9_26_12_2071
76,502.0,9_26_12_2088
77,502.0,9_26_12_2104
78,502.0,9_26_12_2121
79,502.0,9_26_12_2138
80,502.0,9_26_12_2154
81,504.0,9_26_12_2171
82,504.0,9_26_12_2188
83,504.0,9_26_12_2205
84,504.0,9_26_12_2221
85,503.0,9_26_12_2238
86,502.0,9_26_12_2255
87,502.0,9_26_12_2271
88,503.0,9_26_12_2288
89,504.0,9_26_12_2304
90,503.0,9_26_12_2321
91,504.0,9_26_12_2338
92,503.0,9_26_12_2354
93,502.0,9_26_12_2371
94,502.0,9_26_12_2388
95,502.0,9_26_12_2404
96,503.0,9_26_12_2421
97,503.0,9_26_12_2438
98,504.0,9_26_12_2455
99,503.0,9_26_12_2471
100,503.0,9_26_12_2488
101,501.0,9_26_12_2505
102,502.0,9_26_12_2521
103,502.0,9_26_13_2538
104,503.0,9_26_13_2554
105,503.0,9_26_13_2571
106,503.0,9_26_13_2587
107,503.0,9_26_13_2605
108,502.0,9_26_13_2622
109,502.0,9_26_13_2638
110,501.0,9_26_13_2655
111,502.0,9_26_13_2671
112,503.0,9_26_13_2688
113,503.0,9_26_13_2704
114,503.0,9_26_13_2721
115,503.0,9_26_13_2738
116,502.0,9_26_13_2754
117,502.0,9_26_13_2771
118,502.0,9_26_13_2788
119,503.0,9_26_13_2805
120,503.0,9_26_13_2821
121,503.0,9_26_13_2838
122,503.0,9_26_13_2855
123,503.0,9_26_13_2871
124,501.0,9_26_13_2888
125,501.0,9_26_13_2905
126,501.0,9_26_13_2921
127,502.0,9_26_13_2938
128,503.0,9_26_13_2954
129,503.0,9_26_13_2971
130,503.0,9_26_13_2988
131,502.0,9_26_13_3004
132,501.0,9_26_13_3021
133,501.0,9_26_13_3037
134,503.0,9_26_13_3054
135,503.0,9_26_13_3071
136,503.0,9_26_13_3088
137,503.0,9_26_13_3105
138,502.0,9_26_13_3122
139,502.0,9_26_13_3137
140,501.0,9_26_13_3154
141,502.0,9_26_13_3171
142,502.0,9_26_13_3188
143,503.0,9_26_13_3204
144,503.0,9_26_13_3221
145,503.0,9_26_13_3238
146,502.0,9_26_13_3254
147,502.0,9_26_13_3271
148,501.0,9_26_13_3288
149,502.0,9_26_13_3305
150,502.0,9_26_13_3322
151,502.0,9_26_13_3338
152,503.0,9_26_13_3354
153,502.0,9_26_13_3371
154,502.0,9_26_13_3388
155,501.0,9_26_13_3405
156,501.0,9_26_13_3421
157,501.0,9_26_13_3438
158,502.0,9_26_13_3454
159,503.0,9_26_13_3471
160,503.0,9_26_13_3488
161,502.0,9_26_13_3504
162,502.0,9_26_13_3521
163,501.0,9_26_14_3538
164,501.0,9_26_14_3554
165,502.0,9_26_14_3571
166,503.0,9_26_14_3588
167,502.0,9_26_14_3604
168,502.0,9_26_14_3622
169,502.0,9_26_14_3638
170,501.0,9_26_14_3655
171,501.0,9_26_14_3671
172,501.0,9_26_14_3688
173,503.0,9_26_14_3704
174,502.0,9_26_14_3721
175,502.0,9_26_14_3738
176,502.0,9_26_14_3754
177,502.0,9_26_14_3771
178,501.0,9_26_14_3788
179,501.0,9_26_14_3805
180,502.0,9_26_14_3821
181,502.0,9_26_14_3838
182,502.0,9_26_14_3854
183,502.0,9_26_14_3872
184,502.0,9_26_14_3888
185,502.0,9_26_14_3904
186,501.0,9_26_14_3921
187,502.0,9_26_14_3938
188,502.0,9_26_14_3955
189,502.0,9_26_14_3971
190,503.0,9_26_14_3987
191,503.0,9_26_14_4005
192,502.0,9_26_14_4021
193,501.0,9_26_14_4037
194,501.0,9_26_14_4054
195,501.0,9_26_14_4071
196,502.0,9_26_14_4088
197,503.0,9_26_14_4105
198,502.0,9_26_14_4121
199,503.0,9_26_14_4138
200,502.0,9_26_14_4154
201,501.0,9_26_14_4171
202,501.0,9_26_14_4188
203,501.0,9_26_14_4205
204,502.0,9_26_14_4222
205,503.0,9_26_14_4237
206,502.0,9_26_14_4254
207,502.0,9_26_14_4271
208,501.0,9_26_14_4288
209,501.0,9_26_14_4304
210,501.0,9_26_14_4321
211,502.0,9_26_14_4338
212,502.0,9_26_14_4355
213,502.0,9_26_14_4371
214,502.0,9_26_14_4387
215,502.0,9_26_14_4405
216,502.0,9_26_14_4421
217,501.0,9_26_14_4437
218,501.0,9_26_14_4454
219,502.0,9_26_14_4471
220,503.0,9_26_14_4488
221,503.0,9_26_14_4505
222,503.0,9_26_14_4521
223,502.0,9_26_15_4537
224,501.0,9_26_15_4555
225,501.0,9_26_15_4571
226,502.0,9_26_15_4587
227,502.0,9_26_15_4604
228,502.0,9_26_15_4621
229,502.0,9_26_15_4638
230,502.0,9_26_15_4654
231,501.0,9_26_15_4671
232,501.0,9_26_15_4688
233,501.0,9_26_15_4705
234,501.0,9_26_15_4722
235,503.0,9_26_15_4747
236,503.0,9_26_15_4764
237,502.0,9_26_15_4780
238,502.0,9_26_15_4797
239,501.0,9_26_15_4813
240,501.0,9_26_15_4829
241,501.0,9_26_15_4846
242,502.0,9_26_15_4864
243,502.0,9_26_15_4884
244,503.0,9_26_15_4900
245,503.0,9_26_15_4916
246,502.0,9_26_15_4933
247,501.0,9_26_15_4950
248,501.0,9_26_15_4966
249,501.0,9_26_15_4983
250,503.0,9_26_15_5000
251,503.0,9_26_15_5016
252,503.0,9_26_15_5033
253,503.0,9_26_15_5050
254,501.0,9_26_15_5067
255,501.0,9_26_15_5083
256,502.0,9_26_15_5100
257,502.0,9_26_15_5117
258,503.0,9_26_15_5134
259,502.0,9_26_15_5150
260,502.0,9_26_15_5167
261,503.0,9_26_15_5184
262,501.0,9_26_15_5200
263,501.0,9_26_15_5216
264,502.0,9_26_15_5233
265,502.0,9_26_15_5250
266,503.0,9_26_15_5267
267,502.0,9_26_15_5284
268,503.0,9_26_15_5300
269,502.0,9_26_15_5316
270,501.0,9_26_15_5333
271,501.0,9_26_15_5350
272,501.0,9_26_15_5367
273,502.0,9_26_15_5383
274,503.0,9_26_15_5400
275,503.0,9_26_15_5417
276,502.0,9_26_15_5434
277,501.0,9_26_15_5450
278,501.0,9_26_15_5467
279,501.0,9_26_15_5483
280,502.0,9_26_15_5500
281,503.0,9_26_15_5517
282,502.0,9_26_16_5533
283,502.0,9_26_16_5550
284,503.0,9_26_16_5567
285,501.0,9_26_16_5583
286,501.0,9_26_16_5600
287,502.0,9_26_16_5617
288,502.0,9_26_16_5633
289,502.0,9_26_16_5650
290,502.0,9_26_16_5667
291,502.0,9_26_16_5683
292,502.0,9_26_16_5700
293,502.0,9_26_16_5716
294,501.0,9_26_16_5733
295,502.0,9_26_16_5750
296,502.0,9_26_16_5766
297,503.0,9_26_16_5783
298,502.0,9_26_16_5800
299,502.0,9_26_16_5816
300,502.0,9_26_16_5833
301,501.0,9_26_16_5850
302,501.0,9_26_16_5867
303,502.0,9_26_16_5883
304,503.0,9_26_16_5900
305,503.0,9_26_16_5916
306,502.0,9_26_16_5933
307,502.0,9_26_16_5950
308,501.0,9_26_16_5967
309,501.0,9_26_16_5984
310,501.0,9_26_16_6000
311,502.0,9_26_16_6017
312,502.0,9_26_16_6033
313,503.0,9_26_16_6050
314,502.0,9_26_16_6066
315,502.0,9_26_16_6083
316,501.0,9_26_16_6100
317,501.0,9_26_16_6117
318,501.0,9_26_16_6134
319,502.0,9_26_16_6150
320,503.0,9_26_16_6167
321,503.0,9_26_16_6183
322,503.0,9_26_16_6200
323,501.0,9_26_16_6217
324,501.0,9_26_16_6234
325,501.0,9_26_16_6250
326,502.0,9_26_16_6267
327,503.0,9_26_16_6284
328,503.0,9_26_16_6300
329,502.0,9_26_16_6316
330,502.0,9_26_16_6333
331,502.0,9_26_16_6350
332,501.0,9_26_16_6367
333,501.0,9_26_16_6384
334,502.0,9_26_16_6400
335,502.0,9_26_16_6417
336,502.0,9_26_16_6434
337,502.0,9_26_16_6450
338,502.0,9_26_16_6467
339,501.0,9_26_16_6484
340,501.0,9_26_16_6500
341,502.0,9_26_16_6516
342,502.0,9_26_17_6533
343,503.0,9_26_17_6550
344,503.0,9_26_17_6567
345,503.0,9_26_17_6584
346,502.0,9_26_17_6601
347,501.0,9_26_17_6616
348,501.0,9_26_17_6633
349,502.0,9_26_17_6650
350,502.0,9_26_17_6667
351,502.0,9_26_17_6683
352,502.0,9_26_17_6700
353,503.0,9_26_17_6716
354,501.0,9_26_17_6733
355,501.0,9_26_17_6750
356,501.0,9_26_17_6767
357,503.0,9_26_17_6784
358,503.0,9_26_17_6801
359,503.0,9_26_17_6817
360,502.0,9_26_17_6834
361,502.0,9_26_17_6850
362,501.0,9_26_17_6867
363,501.0,9_26_17_6883
364,501.0,9_26_17_6901
365,502.0,9_26_17_6917
366,503.0,9_26_17_6933
367,503.0,9_26_17_6951
368,502.0,9_26_17_6967
369,502.0,9_26_17_6983
370,501.0,9_26_17_7000
371,501.0,9_26_17_7017
372,501.0,9_26_17_7034
373,503.0,9_26_17_7050
374,502.0,9_26_17_7067
375,503.0,9_26_17_7084
376,502.0,9_26_17_7100
377,502.0,9_26_17_7116
378,501.0,9_26_17_7133
379,501.0,9_26_17_7150
380,502.0,9_26_17_7167
381,502.0,9_26_17_7183
382,502.0,9_26_17_7200
383,502.0,9_26_17_7216
384,502.0,9_26_17_7233
385,502.0,9_26_17_7250
386,501.0,9_26_17_7267
387,502.0,9_26_17_7283
388,502.0,9_26_17_7300
389,503.0,9_26_17_7317
390,502.0,9_26_17_7334
391,502.0,9_26_17_7350
392,502.0,9_26_17_7367
393,501.0,9_26_17_7383
394,501.0,9_26_17_7400
395,501.0,9_26_17_7417
396,502.0,9_26_17_7433
397,503.0,9_26_17_7450
398,503.0,9_26_17_7467
399,503.0,9_26_17_7484
400,502.0,9_26_17_7500
401,501.0,9_26_17_7517
402,501.0,9_26_18_7534
403,502.0,9_26_18_7550
404,503.0,9_26_18_7567
405,503.0,9_26_18_7584
406,503.0,9_26_18_7600
407,502.0,9_26_18_7617
408,501.0,9_26_18_7634
409,501.0,9_26_18_7650
410,502.0,9_26_18_7667
411,502.0,9_26_18_7683
412,502.0,9_26_18_7700
413,502.0,9_26_18_7717
414,503.0,9_26_18_7733
415,502.0,9_26_18_7750
416,501.0,9_26_18_7766
417,501.0,9_26_18_7783
418,502.0,9_26_18_7800
419,503.0,9_26_18_7817
420,503.0,9_26_18_7833
421,502.0,9_26_18_7850
422,503.0,9_26_18_7867
423,502.0,9_26_18_7883
424,501.0,9_26_18_7900
425,501.0,9_26_18_7917
426,501.0,9_26_18_7934
427,503.0,9_26_18_7951
428,502.0,9_26_18_7966
429,502.0,9_26_18_7983
430,502.0,9_26_18_8000
431,501.0,9_26_18_8017
432,500.0,9_26_18_8033
433,502.0,9_26_18_8050
434,502.0,9_26_18_8067
435,503.0,9_26_18_8083
436,502.0,9_26_18_8100
437,502.0,9_26_18_8117
438,502.0,9_26_18_8134
439,501.0,9_26_18_8150
440,501.0,9_26_18_8166
441,502.0,9_26_18_8183
442,502.0,9_26_18_8200
443,502.0,9_26_18_8217
444,502.0,9_26_18_8234
445,502.0,9_26_18_8250
446,502.0,9_26_18_8266
447,501.0,9_26_18_8283
448,501.0,9_26_18_8300
449,502.0,9_26_18_8317
450,503.0,9_26_18_8333
451,502.0,9_26_18_8350
452,502.0,9_26_18_8367
453,502.0,9_26_18_8383
454,501.0,9_26_18_8400
455,501.0,9_26_18_8417
456,502.0,9_26_18_8434
457,502.0,9_26_18_8450
458,502.0,9_26_18_8467
459,503.0,9_26_18_8483
460,502.0,9_26_18_8500
461,502.0,9_26_18_8516
462,501.0,9_26_19_8534
463,501.0,9_26_19_8550
464,502.0,9_26_19_8567
465,502.0,9_26_19_8584
466,503.0,9_26_19_8601
467,503.0,9_26_19_8617
468,503.0,9_26_19_8633
469,502.0,9_26_19_8650
470,501.0,9_26_19_8667
471,501.0,9_26_19_8683
472,502.0,9_26_19_8700
473,502.0,9_26_19_8717
474,503.0,9_26_19_8734
475,503.0,9_26_19_8750
476,502.0,9_26_19_8766
477,501.0,9_26_19_8783
478,501.0,9_26_19_8800
479,502.0,9_26_19_8817
480,502.0,9_26_19_8834
481,503.0,9_26_19_8851
482,502.0,9_26_19_8866
483,502.0,9_26_19_8883
484,502.0,9_26_19_8900
485,502.0,9_26_19_8916
486,502.0,9_26_19_8933
487,502.0,9_26_19_8950
488,503.0,9_26_19_8966
489,503.0,9_26_19_8983
490,503.0,9_26_19_9000
491,502.0,9_26_19_9016
492,502.0,9_26_19_9033
493,501.0,9_26_19_9050
494,502.0,9_26_19_9067
495,502.0,9_26_19_9084
496,502.0,9_26_19_9100
497,502.0,9_26_19_9117
498,503.0,9_26_19_9133
499,503.0,9_26_19_9150
500,501.0,9_26_19_9167
501,502.0,9_26_19_9184
502,501.0,9_26_19_9201
503,502.0,9_26_19_9216
504,503.0,9_26_19_9233
505,503.0,9_26_19_9250
506,503.0,9_26_19_9266
507,503.0,9_26_19_9284
508,502.0,9_26_19_9300
509,501.0,9_26_19_9316
510,501.0,9_26_19_9333
511,503.0,9_26_19_9351
512,503.0,9_26_19_9366
513,503.0,9_26_19_9383
514,503.0,9_26_19_9400
515,502.0,9_26_19_9416
516,501.0,9_26_19_9433
517,501.0,9_26_19_9450
518,502.0,9_26_19_9467
519,503.0,9_26_19_9483
520,503.0,9_26_19_9500
521,503.0,9_26_19_9517
522,502.0,9_26_20_9533
523,501.0,9_26_20_9550
524,502.0,9_26_20_9567
525,502.0,9_26_20_9584
526,502.0,9_26_20_9600
527,503.0,9_26_20_9617
528,502.0,9_26_20_9634
529,502.0,9_26_20_9650
530,502.0,9_26_20_9667
531,502.0,9_26_20_9684
532,501.0,9_26_20_9700
533,502.0,9_26_20_9717
534,502.0,9_26_20_9734
535,503.0,9_26_20_9762
536,502.0,9_26_20_9779
537,502.0,9_26_20_9795
538,503.0,9_26_20_9812
539,501.0,9_26_20_9829
540,501.0,9_26_20_9845
541,502.0,9_26_20_9862
542,502.0,9_26_20_9879
543,503.0,9_26_20_9895
544,502.0,9_26_20_9912
545,503.0,9_26_20_9928
546,501.0,9_26_20_9945
547,501.0,9_26_20_9962
548,501.0,9_26_20_9979
549,501.0,9_26_20_9995
550,503.0,9_26_20_10012
551,503.0,9_26_20_10029
552,503.0,9_26_20_10045
553,502.0,9_26_20_10062
554,501.0,9_26_20_10079
555,501.0,9_26_20_10096
556,502.0,9_26_20_10112
557,502.0,9_26_20_10129
558,502.0,9_26_20_10145
559,502.0,9_26_20_10162
560,503.0,9_26_20_10178
561,501.0,9_26_20_10195
562,501.0,9_26_20_10212
563,501.0,9_26_20_10229
564,502.0,9_26_20_10245
565,502.0,9_26_20_10262
566,502.0,9_26_20_10279
567,503.0,9_26_20_10295
568,502.0,9_26_20_10313
569,502.0,9_26_20_10329
570,501.0,9_26_20_10346
571,501.0,9_26_20_10363
572,502.0,9_26_20_10378
573,503.0,9_26_20_10395
574,502.0,9_26_20_10412
575,503.0,9_26_20_10429
576,503.0,9_26_20_10446
577,502.0,9_26_20_10462
578,501.0,9_26_20_10479
579,502.0,9_26_20_10495
580,502.0,9_26_20_10512
581,503.0,9_26_21_10529
582,503.0,9_26_21_10545
583,503.0,9_26_21_10562
584,502.0,9_26_21_10579
585,502.0,9_26_21_10596
586,501.0,9_26_21_10612
587,502.0,9_26_21_10628
588,502.0,9_26_21_10645
589,503.0,9_26_21_10662
590,502.0,9_26_21_10679
591,502.0,9_26_21_10696
592,502.0,9_26_21_10712
593,501.0,9_26_21_10729
594,501.0,9_26_21_10745
595,502.0,9_26_21_10762
596,503.0,9_26_21_10779
597,502.0,9_26_21_10796
598,503.0,9_26_21_10812
599,502.0,9_26_21_10829
600,501.0,9_26_21_10846
601,501.0,9_26_21_10862
602,502.0,9_26_21_10879
603,502.0,9_26_21_10896
604,503.0,9_26_21_10912
605,503.0,9_26_21_10929
606,503.0,9_26_21_10946
607,502.0,9_26_21_10962
608,501.0,9_26_21_10979
609,501.0,9_26_21_10995
610,502.0,9_26_21_11012
611,502.0,9_26_21_11029
612,503.0,9_26_21_11046
613,502.0,9_26_21_11062
614,502.0,9_26_21_11079
615,502.0,9_26_21_11096
616,502.0,9_26_21_11112
617,501.0,9_26_21_11128
618,502.0,9_26_21_11145
619,503.0,9_26_21_11162
620,503.0,9_26_21_11179
621,503.0,9_26_21_11196
622,503.0,9_26_21_11212
623,501.0,9_26_21_11229
624,501.0,9_26_21_11245
625,501.0,9_26_21_11262
626,502.0,9_26_21_11279
627,503.0,9_26_21_11296
628,502.0,9_26_21_11313
629,503.0,9_26_21_11329
630,502.0,9_26_21_11345
631,501.0,9_26_21_11362
632,501.0,9_26_21_11379
633,502.0,9_26_21_11396
634,503.0,9_26_21_11412
635,503.0,9_26_21_11429
636,503.0,9_26_21_11445
637,502.0,9_26_21_11462
638,502.0,9_26_21_11479
639,501.0,9_26_21_11496
640,502.0,9_26_21_11513
641,502.0,9_26_22_11529
642,503.0,9_26_22_11546
643,502.0,9_26_22_11562
644,503.0,9_26_22_11579
645,503.0,9_26_22_11595
646,502.0,9_26_22_11612
647,502.0,9_26_22_11629
648,502.0,9_26_22_11646
649,503.0,9_26_22_11663
650,503.0,9_26_22_11679
651,502.0,9_26_22_11696
652,502.0,9_26_22_11713
653,502.0,9_26_22_11729
654,501.0,9_26_22_11745
655,501.0,9_26_22_11762
656,502.0,9_26_22_11779
657,503.0,9_26_22_11797
658,503.0,9_26_22_11812
659,503.0,9_26_22_11829
660,502.0,9_26_22_11845
661,502.0,9_26_22_11862
662,502.0,9_26_22_11879
663,501.0,9_26_22_11896
664,502.0,9_26_22_11912
665,503.0,9_26_22_11929
666,503.0,9_26_22_11946
667,503.0,9_26_22_11963
668,502.0,9_26_22_11978
669,502.0,9_26_22_11995
670,502.0,9_26_22_12012
671,501.0,9_26_22_12029
672,502.0,9_26_22_12045
673,502.0,9_26_22_12062
674,503.0,9_26_22_12079
675,503.0,9_26_22_12096
676,502.0,9_26_22_12112
677,501.0,9_26_22_12129
678,501.0,9_26_22_12146
679,502.0,9_26_22_12162
680,503.0,9_26_22_12179
681,503.0,9_26_22_12196
682,503.0,9_26_22_12212
683,502.0,9_26_22_12229
684,502.0,9_26_22_12246
685,502.0,9_26_22_12263
686,501.0,9_26_22_12279
687,502.0,9_26_22_12296
688,502.0,9_26_22_12313
689,503.0,9_26_22_12328
690,503.0,9_26_22_12345
691,502.0,9_26_22_12362
692,502.0,9_26_22_12379
693,502.0,9_26_22_12395
694,501.0,9_26_22_12412
695,502.0,9_26_22_12429
696,503.0,9_26_22_12446
697,502.0,9_26_22_12463
698,503.0,9_26_22_12479
699,502.0,9_26_22_12495
700,501.0,9_26_22_12512
701,501.0,9_26_23_12529
702,501.0,9_26_23_12546
703,502.0,9_26_23_12562
704,503.0,9_26_23_12580
705,503.0,9_26_23_12596
706,503.0,9_26_23_12613
707,501.0,9_26_23_12629
708,501.0,9_26_23_12646
709,501.0,9_26_23_12662
710,502.0,9_26_23_12679
711,503.0,9_26_23_12695
712,503.0,9_26_23_12712
713,503.0,9_26_23_12729
714,502.0,9_26_23_12746
715,502.0,9_26_23_12762
716,501.0,9_26_23_12779
717,501.0,9_26_23_12796
718,502.0,9_26_23_12812
719,503.0,9_26_23_12829
720,503.0,9_26_23_12846
721,503.0,9_26_23_12862
722,502.0,9_26_23_12879
723,502.0,9_26_23_12937
724,502.0,9_26_23_12992
725,502.0,9_26_23_13009
726,503.0,9_26_23_13025
727,503.0,9_26_23_13042
728,502.0,9_26_23_13058
729,503.0,9_26_23_13075
730,502.0,9_26_23_13092
731,501.0,9_26_23_13108
732,502.0,9_26_23_13125
733,502.0,9_26_23_13142
734,502.0,9_26_23_13159
735,503.0,9_26_23_13176
736,503.0,9_26_23_13192
737,502.0,9_26_23_13208
738,502.0,9_26_23_13225
739,501.0,9_26_23_13242
740,502.0,9_26_23_13259
741,502.0,9_26_23_13275
742,503.0,9_26_23_13292
743,503.0,9_26_23_13309
744,503.0,9_26_23_13325
745,502.0,9_26_23_13342
746,501.0,9_26_23_13359
747,501.0,9_26_23_13375
748,501.0,9_26_23_13392
749,503.0,9_26_23_13408
750,503.0,9_26_23_13425
751,503.0,9_26_23_13442
752,502.0,9_26_23_13459
753,502.0,9_26_23_13475
754,501.0,9_26_23_13492
755,502.0,9_26_23_13509
756,501.0,9_26_23_13525
757,502.0,9_26_24_13542
758,503.0,9_26_24_13559
759,502.0,9_26_24_13575
760,502.0,9_26_24_13592
761,501.0,9_26_24_13608
762,501.0,9_26_24_13625
763,502.0,9_26_24_13642
764,502.0,9_26_24_13659
765,502.0,9_26_24_13676
766,502.0,9_26_24_13692
767,502.0,9_26_24_13709
768,502.0,9_26_24_13725
769,501.0,9_26_24_13742
770,501.0,9_26_24_13758
771,501.0,9_26_24_13775
772,502.0,9_26_24_13792
773,503.0,9_26_24_13809
774,503.0,9_26_24_13825
775,502.0,9_26_24_13842
776,503.0,9_26_24_13859
777,501.0,9_26_24_13875
778,501.0,9_26_24_13892
779,502.0,9_26_24_13909
780,503.0,9_26_24_13925
781,503.0,9_26_24_13942
782,503.0,9_26_24_13958
783,502.0,9_26_24_13975
784,502.0,9_26_24_13992
785,501.0,9_26_24_14009
786,501.0,9_26_24_14026
787,502.0,9_26_24_14042
788,502.0,9_26_24_14058
789,503.0,9_26_24_14075
790,502.0,9_26_24_14092
791,502.0,9_26_24_14108
792,502.0,9_26_24_14125
793,501.0,9_26_24_14142
794,501.0,9_26_24_14159
795,502.0,9_26_24_14176
796,503.0,9_26_24_14192
797,503.0,9_26_24_14209
798,502.0,9_26_24_14226
799,502.0,9_26_24_14242
800,501.0,9_26_24_14259
801,502.0,9_26_24_14275
802,502.0,9_26_24_14292
803,502.0,9_26_24_14309
804,503.0,9_26_24_14326
805,502.0,9_26_24_14342
806,503.0,9_26_24_14358
807,502.0,9_26_24_14375
808,502.0,9_26_24_14392
809,502.0,9_26_24_14409
810,502.0,9_26_24_14425
811,503.0,9_26_24_14442
812,502.0,9_26_24_14459
813,503.0,9_26_24_14476
814,502.0,9_26_24_14491
815,502.0,9_26_24_14508
816,501.0,9_26_24_14525
817,502.0,9_26_25_14542
818,502.0,9_26_25_14559
819,503.0,9_26_25_14576
820,502.0,9_26_25_14592
821,503.0,9_26_25_14609
822,502.0,9_26_25_14625
823,501.0,9_26_25_14642
824,501.0,9_26_25_14658
825,502.0,9_26_25_14675
826,502.0,9_26_25_14692
827,502.0,9_26_25_14708
828,503.0,9_26_25_14725
829,503.0,9_26_25_14742
830,502.0,9_26_25_14764
831,502.0,9_26_25_14781
832,501.0,9_26_25_14798
833,502.0,9_26_25_14814
834,503.0,9_26_25_14831
835,503.0,9_26_25_14847
836,503.0,9_26_25_14864
837,502.0,9_26_25_14881
838,502.0,9_26_25_14897
839,502.0,9_26_25_14914
840,502.0,9_26_25_14931
841,502.0,9_26_25_14948
842,502.0,9_26_25_14964
843,502.0,9_26_25_14981
844,503.0,9_26_25_14998
845,502.0,9_26_25_15015
846,502.0,9_26_25_15031
847,502.0,9_26_25_15048
848,502.0,9_26_25_15064
849,502.0,9_26_25_15081
850,503.0,9_26_25_15097
851,502.0,9_26_25_15114
852,503.0,9_26_25_15131
853,502.0,9_26_25_15147
854,501.0,9_26_25_15164
855,501.0,9_26_25_15181
856,502.0,9_26_25_15198
857,502.0,9_26_25_15215
858,503.0,9_26_25_15231
859,503.0,9_26_25_15248
860,503.0,9_26_25_15265
861,501.0,9_26_25_15282
862,501.0,9_26_25_15297
863,501.0,9_26_25_15314
864,502.0,9_26_25_15331
865,502.0,9_26_25_15348
866,503.0,9_26_25_15364
867,502.0,9_26_25_15381
868,502.0,9_26_25_15398
869,501.0,9_26_25_15415
870,501.0,9_26_25_15432
871,502.0,9_26_25_15448
872,503.0,9_26_25_15464
873,503.0,9_26_25_15481
874,502.0,9_26_25_15498
875,502.0,9_26_25_15514
876,501.0,9_26_26_15531
877,502.0,9_26_26_15548
878,501.0,9_26_26_15564
879,501.0,9_26_26_15581
880,503.0,9_26_26_15598
881,502.0,9_26_26_15614
882,503.0,9_26_26_15631
883,502.0,9_26_26_15648
884,502.0,9_26_26_15664
885,501.0,9_26_26_15681
886,502.0,9_26_26_15697
887,502.0,9_26_26_15715
888,502.0,9_26_26_15731
889,503.0,9_26_26_15747
890,503.0,9_26_26_15764
891,502.0,9_26_26_15781
892,502.0,9_26_26_15798
893,501.0,9_26_26_15815
894,501.0,9_26_26_15831
895,502.0,9_26_26_15848
896,503.0,9_26_26_15864
897,503.0,9_26_26_15881
898,503.0,9_26_26_15898
899,502.0,9_26_26_15915
900,502.0,9_26_26_15933
901,501.0,9_26_26_15948
902,501.0,9_26_26_15965
903,502.0,9_26_26_15981
904,503.0,9_26_26_15998
905,503.0,9_26_26_16015
906,502.0,9_26_26_16032
907,502.0,9_26_26_16047
908,501.0,9_26_26_16064
909,501.0,9_26_26_16081
910,502.0,9_26_26_16098
911,503.0,9_26_26_16114
912,503.0,9_26_26_16131
913,502.0,9_26_26_16148
914,502.0,9_26_26_16165
915,501.0,9_26_26_16182
916,501.0,9_26_26_16198
917,501.0,9_26_26_16214
918,502.0,9_26_26_16231
919,503.0,9_26_26_16248
920,502.0,9_26_26_16264
921,502.0,9_26_26_16281
922,502.0,9_26_26_16298
923,502.0,9_26_26_16314
924,501.0,9_26_26_16331
925,502.0,9_26_26_16348
926,502.0,9_26_26_16365
927,503.0,9_26_26_16381
928,502.0,9_26_26_16398
929,503.0,9_26_26_16415
930,501.0,9_26_26_16431
931,501.0,9_26_26_16448
932,501.0,9_26_26_16464
933,502.0,9_26_26_16481
934,502.0,9_26_26_16498
935,503.0,9_26_26_16515
936,502.0,9_26_27_16531
937,502.0,9_26_27_16548
938,501.0,9_26_27_16565
939,501.0,9_26_27_16581
940,501.0,9_26_27_16598
941,502.0,9_26_27_16615
942,502.0,9_26_27_16631
943,502.0,9_26_27_16648
944,502.0,9_26_27_16665
945,502.0,9_26_27_16681
946,501.0,9_26_27_16698
947,501.0,9_26_27_16715
948,502.0,9_26_27_16731
949,502.0,9_26_27_16747
950,503.0,9_26_27_16764
951,502.0,9_26_27_16781
952,503.0,9_26_27_16797
953,502.0,9_26_27_16815
954,502.0,9_26_27_16832
955,501.0,9_26_27_16847
956,502.0,9_26_27_16864
957,502.0,9_26_27_16882
958,502.0,9_26_27_16897
959,502.0,9_26_27_16915
960,502.0,9_26_27_16931
961,501.0,9_26_27_16948
962,501.0,9_26_27_16965
963,502.0,9_26_27_16981
964,502.0,9_26_27_16998
965,502.0,9_26_27_17015
966,503.0,9_26_27_17031
967,503.0,9_26_27_17047
968,502.0,9_26_27_17064
969,501.0,9_26_27_17081
970,501.0,9_26_27_17098
971,502.0,9_26_27_17114
972,502.0,9_26_27_17131
973,503.0,9_26_27_17148
974,502.0,9_26_27_17164
975,503.0,9_26_27_17181
976,501.0,9_26_27_17198
977,501.0,9_26_27_17214
978,501.0,9_26_27_17231
979,501.0,9_26_27_17248
980,502.0,9_26_27_17264
981,503.0,9_26_27_17281
982,503.0,9_26_27_17298
983,503.0,9_26_27_17314
984,501.0,9_26_27_17331
985,501.0,9_26_27_17348
986,502.0,9_26_27_17365
987,502.0,9_26_27_17381
988,503.0,9_26_27_17398
989,502.0,9_26_27_17414
990,502.0,9_26_27_17431
991,502.0,9_26_27_17448
992,501.0,9_26_27_17465
993,501.0,9_26_27_17481
994,502.0,9_26_27_17498
995,502.0,9_26_27_17514
996,502.0,9_26_28_17531
997,503.0,9_26_28_17548
998,502.0,9_26_28_17564
999,502.0,9_26_28_17581
1000,501.0,9_26_28_17598
1001,501.0,9_26_28_17614
1002,501.0,9_26_28_17631
1003,502.0,9_26_28_17648
1004,502.0,9_26_28_17664
1005,503.0,9_26_28_17682
1006,502.0,9_26_28_17698
1007,501.0,9_26_28_17715
1008,502.0,9_26_28_17731
1009,501.0,9_26_28_17748
1010,502.0,9_26_28_17765
1011,502.0,9_26_28_17781
1012,503.0,9_26_28_17798
1013,503.0,9_26_28_17814
1014,502.0,9_26_28_17831
1015,501.0,9_26_28_17848
1016,501.0,9_26_28_17864
1017,502.0,9_26_28_17881
1018,502.0,9_26_28_17898
1019,503.0,9_26_28_17918
1020,502.0,9_26_28_17962
1021,503.0,9_26_28_17978
1022,501.0,9_26_28_17995
1023,501.0,9_26_28_18011
1024,501.0,9_26_28_18028
1025,502.0,9_26_28_18045
1026,502.0,9_26_28_18062
1027,502.0,9_26_28_18079
1028,502.0,9_26_28_18094
1029,502.0,9_26_28_18112
1030,501.0,9_26_28_18128
1031,501.0,9_26_28_18145
1032,501.0,9_26_28_18162
1033,502.0,9_26_28_18179
1034,503.0,9_26_28_18195
1035,503.0,9_26_28_18212
1036,503.0,9_26_28_18229
1037,502.0,9_26_28_18245
1038,502.0,9_26_28_18262
1039,501.0,9_26_28_18278
1040,501.0,9_26_28_18295
1041,502.0,9_26_28_18312
1042,503.0,9_26_28_18328
1043,503.0,9_26_28_18345
1044,502.0,9_26_28_18362
1045,502.0,9_26_28_18379
1046,502.0,9_26_28_18395
1047,501.0,9_26_28_18412
1048,502.0,9_26_28_18428
1049,502.0,9_26_28_18445
1050,503.0,9_26_28_18462
1051,503.0,9_26_28_18479
1052,503.0,9_26_28_18495
1053,501.0,9_26_28_18512
1054,501.0,9_26_28_18528
1055,501.0,9_26_29_18545
1056,502.0,9_26_29_18562
1057,502.0,9_26_29_18579
1058,503.0,9_26_29_18595
1059,503.0,9_26_29_18612
1060,502.0,9_26_29_18628
1061,501.0,9_26_29_18645
1062,501.0,9_26_29_18662
1063,502.0,9_26_29_18678
1064,502.0,9_26_29_18695
1065,503.0,9_26_29_18711
1066,502.0,9_26_29_18728
1067,502.0,9_26_29_18745
1068,502.0,9_26_29_18762
1069,502.0,9_26_29_18778
1070,501.0,9_26_29_18795
1071,502.0,9_26_29_18812
1072,502.0,9_26_29_18828
1073,503.0,9_26_29_18845
1074,503.0,9_26_29_18862
1075,503.0,9_26_29_18879
1076,502.0,9_26_29_18895
1077,501.0,9_26_29_18912
1078,501.0,9_26_29_18928
1079,501.0,9_26_29_18945
1080,502.0,9_26_29_18962
1081,503.0,9_26_29_18979
1082,503.0,9_26_29_18995
1083,502.0,9_26_29_19012
1084,501.0,9_26_29_19028
1085,501.0,9_26_29_19045
1086,502.0,9_26_29_19062
1087,502.0,9_26_29_19078
1088,503.0,9_26_29_19095
1089,503.0,9_26_29_19111
1090,503.0,9_26_29_19128
1091,502.0,9_26_29_19145
1092,501.0,9_26_29_19161
1093,501.0,9_26_29_19178
1094,502.0,9_26_29_19195
1095,503.0,9_26_29_19212
1096,502.0,9_26_29_19228
1097,502.0,9_26_29_19245
1098,502.0,9_26_29_19261
1099,502.0,9_26_29_19278
1100,501.0,9_26_29_19295
1101,502.0,9_26_29_19312
1102,502.0,9_26_29_19328
1103,503.0,9_26_29_19345
1104,502.0,9_26_29_19362
1105,502.0,9_26_29_19379
1106,502.0,9_26_29_19395
1107,501.0,9_26_29_19412
1108,501.0,9_26_29_19429
1109,501.0,9_26_29_19445
1110,502.0,9_26_29_19462
1111,503.0,9_26_29_19478
1112,503.0,9_26_29_19495
1113,503.0,9_26_29_19512
1114,502.0,9_26_29_19528
1115,501.0,9_26_30_19545
1116,502.0,9_26_30_19562
1117,501.0,9_26_30_19578
1118,503.0,9_26_30_19595
1119,503.0,9_26_30_19611
1120,503.0,9_26_30_19629
1121,503.0,9_26_30_19645
1122,501.0,9_26_30_19661
1123,501.0,9_26_30_19678
1124,501.0,9_26_30_19695
1125,502.0,9_26_30_19712
1126,503.0,9_26_30_19729
1127,502.0,9_26_30_19745
1128,503.0,9_26_30_19775
1129,502.0,9_26_30_19791
1130,501.0,9_26_30_19808
1131,501.0,9_26_30_19825
1132,501.0,9_26_30_19842
1133,503.0,9_26_30_19858
1134,502.0,9_26_30_19875
1135,503.0,9_26_30_19891
1136,503.0,9_26_30_19909
1137,502.0,9_26_30_19925
1138,502.0,9_26_30_19941
1139,502.0,9_26_30_19958
1140,502.0,9_26_30_19975
1141,503.0,9_26_30_19991
1142,503.0,9_26_30_20008
1143,503.0,9_26_30_20025
1144,503.0,9_26_30_20041
1145,502.0,9_26_30_20058
1146,502.0,9_26_30_20075
1147,501.0,9_26_30_20091
1148,502.0,9_26_30_20108
1149,503.0,9_26_30_20125
1150,502.0,9_26_30_20142
1151,502.0,9_26_30_20158
1152,502.0,9_26_30_20175
1153,501.0,9_26_30_20192
1154,501.0,9_26_30_20209
1155,501.0,9_26_30_20225
1156,501.0,9_26_30_20242
1157,503.0,9_26_30_20258
1158,503.0,9_26_30_20275
1159,502.0,9_26_30_20291
1160,502.0,9_26_30_20309
1161,501.0,9_26_30_20325
1162,501.0,9_26_30_20341
1163,501.0,9_26_30_20359
1164,502.0,9_26_30_20375
1165,502.0,9_26_30_20391
1166,502.0,9_26_30_20408
1167,502.0,9_26_30_20425
1168,501.0,9_26_30_20441
1169,501.0,9_26_30_20458
1170,501.0,9_26_30_20475
1171,501.0,9_26_30_20492
1172,503.0,9_26_30_20508
1173,503.0,9_26_30_20525
1174,503.0,9_26_31_20542
1175,503.0,9_26_31_20558
1176,502.0,9_26_31_20575
1177,501.0,9_26_31_20591
1178,501.0,9_26_31_20609
1179,502.0,9_26_31_20625
1180,502.0,9_26_31_20641
1181,502.0,9_26_31_20658
1182,503.0,9_26_31_20675
1183,502.0,9_26_31_20692
1184,501.0,9_26_31_20708
1185,501.0,9_26_31_20725
1186,502.0,9_26_31_20742
1187,502.0,9_26_31_20759
1188,503.0,9_26_31_20775
1189,503.0,9_26_31_20791
1190,503.0,9_26_31_20808
1191,502.0,9_26_31_20825
1192,501.0,9_26_31_20842
1193,501.0,9_26_31_20858
1194,501.0,9_26_31_20875
1195,502.0,9_26_31_20892
1196,503.0,9_26_31_20909
1197,503.0,9_26_31_20925
1198,502.0,9_26_31_20942
1199,501.0,9_26_31_20958
1200,501.0,9_26_31_20975
1201,501.0,9_26_31_20992
1202,502.0,9_26_31_21008
1203,503.0,9_26_31_21025
1204,502.0,9_26_31_21042
1205,502.0,9_26_31_21058
1206,503.0,9_26_31_21075
1207,501.0,9_26_31_21091
1208,501.0,9_26_31_21108
1209,502.0,9_26_31_21124
1210,502.0,9_26_31_21141
1211,503.0,9_26_31_21159
1212,503.0,9_26_31_21175
1213,503.0,9_26_31_21192
1214,502.0,9_26_31_21208
1215,501.0,9_26_31_21225
1216,501.0,9_26_31_21241
1217,502.0,9_26_31_21258
1218,502.0,9_26_31_21275
1219,503.0,9_26_31_21291
1220,502.0,9_26_31_21308
1221,502.0,9_26_31_21325
1222,502.0,9_26_31_21342
1223,501.0,9_26_31_21358
1224,501.0,9_26_31_21375
1225,502.0,9_26_31_21391
1226,502.0,9_26_31_21408
1227,503.0,9_26_31_21426
1228,503.0,9_26_31_21442
1229,502.0,9_26_31_21458
1230,501.0,9_26_31_21475
1231,501.0,9_26_31_21492
1232,501.0,9_26_31_21508
1233,502.0,9_26_31_21525
1234,502.0,9_26_32_21542
1235,502.0,9_26_32_21559
1236,503.0,9_26_32_21575
1237,502.0,9_26_32_21591
1238,501.0,9_26_32_21608
1239,501.0,9_26_32_21624
1240,502.0,9_26_32_21642
1241,502.0,9_26_32_21659
1242,503.0,9_26_32_21675
1243,502.0,9_26_32_21691
1244,502.0,9_26_32_21709
1245,502.0,9_26_32_21725
1246,501.0,9_26_32_21742
1247,501.0,9_26_32_21758
1248,502.0,9_26_32_21775
1249,503.0,9_26_32_21791
1250,503.0,9_26_32_21809
1251,503.0,9_26_32_21825
1252,503.0,9_26_32_21842
1253,501.0,9_26_32_21858
1254,501.0,9_26_32_21875
1255,502.0,9_26_32_21891
1256,503.0,9_26_32_21908
1257,502.0,9_26_32_21925
1258,503.0,9_26_32_21941
1259,502.0,9_26_32_21959
1260,502.0,9_26_32_21975
1261,501.0,9_26_32_21992
1262,502.0,9_26_32_22008
1263,502.0,9_26_32_22025
1264,502.0,9_26_32_22042
1265,502.0,9_26_32_22058
1266,502.0,9_26_32_22075
1267,502.0,9_26_32_22092
1268,502.0,9_26_32_22108
1269,502.0,9_26_32_22125
1270,501.0,9_26_32_22142
1271,502.0,9_26_32_22158
1272,502.0,9_26_32_22175
1273,502.0,9_26_32_22191
1274,503.0,9_26_32_22209
1275,502.0,9_26_32_22225
1276,501.0,9_26_32_22242
1277,501.0,9_26_32_22258
1278,501.0,9_26_32_22275
1279,502.0,9_26_32_22292
1280,503.0,9_26_32_22308
1281,503.0,9_26_32_22325
1282,503.0,9_26_32_22342
1283,502.0,9_26_32_22358
1284,501.0,9_26_32_22375
1285,501.0,9_26_32_22392
1286,501.0,9_26_32_22409
1287,502.0,9_26_32_22425
1288,503.0,9_26_32_22442
1289,503.0,9_26_32_22458
1290,502.0,9_26_32_22475
1291,501.0,9_26_32_22491
1292,501.0,9_26_32_22509
1293,501.0,9_26_32_22525
1294,502.0,9_26_33_22542
1295,502.0,9_26_33_22558
1296,502.0,9_26_33_22575
1297,503.0,9_26_33_22592
1298,502.0,9_26_33_22609
1299,501.0,9_26_33_22625
1300,501.0,9_26_33_22642
1301,501.0,9_26_33_22659
1302,502.0,9_26_33_22675
1303,502.0,9_26_33_22691
1304,502.0,9_26_33_22709
1305,502.0,9_26_33_22725
1306,502.0,9_26_33_22742
1307,501.0,9_26_33_22758
1308,501.0,9_26_33_22775
1309,502.0,9_26_33_22792
1310,502.0,9_26_33_22808
1311,503.0,9_26_33_22825
1312,502.0,9_26_33_22842
1313,503.0,9_26_33_22859
1314,501.0,9_26_33_22875
1315,501.0,9_26_33_22892
1316,501.0,9_26_33_22908
1317,502.0,9_26_33_23055
1318,503.0,9_26_33_23072
1319,503.0,9_26_33_23088
1320,503.0,9_26_33_23106
1321,502.0,9_26_33_23122
1322,501.0,9_26_33_23139
1323,501.0,9_26_33_23155
1324,501.0,9_26_33_23172
1325,503.0,9_26_33_23188
1326,503.0,9_26_33_23205
1327,502.0,9_26_33_23222
1328,502.0,9_26_33_23238
1329,502.0,9_26_33_23255
1330,501.0,9_26_33_23272
1331,501.0,9_26_33_23289
1332,501.0,9_26_33_23305
1333,503.0,9_26_33_23322
1334,502.0,9_26_33_23338
1335,502.0,9_26_33_23355
1336,502.0,9_26_33_23372
1337,501.0,9_26_33_23388
1338,501.0,9_26_33_23405
1339,501.0,9_26_33_23422
1340,501.0,9_26_33_23438
1341,502.0,9_26_33_23456
1342,502.0,9_26_33_23472
1343,502.0,9_26_33_23489
1344,502.0,9_26_33_23506
1345,502.0,9_26_33_23522
1346,501.0,9_26_34_23538
1347,501.0,9_26_34_23556
1348,502.0,9_26_34_23572
1349,502.0,9_26_34_23589
1350,503.0,9_26_34_23606
1351,502.0,9_26_34_23622
1352,502.0,9_26_34_23638
1353,501.0,9_26_34_23655
1354,502.0,9_26_34_23671
1355,502.0,9_26_34_23689
1356,502.0,9_26_34_23705
1357,503.0,9_26_34_23721
1358,503.0,9_26_34_23739
1359,502.0,9_26_34_23755
1360,502.0,9_26_34_23772
1361,501.0,9_26_34_23788
1362,501.0,9_26_34_23805
1363,502.0,9_26_34_23822
1364,502.0,9_26_34_23838
1365,503.0,9_26_34_23856
1366,502.0,9_26_34_23872
1367,502.0,9_26_34_23889
1368,502.0,9_26_34_23906
1369,502.0,9_26_34_23922
1370,501.0,9_26_34_23939
1371,502.0,9_26_34_23955
1372,502.0,9_26_34_23971
1373,502.0,9_26_34_23989
1374,502.0,9_26_34_24005
1375,502.0,9_26_34_24022
1376,502.0,9_26_34_24039
1377,501.0,9_26_34_24055
1378,501.0,9_26_34_24071
1379,502.0,9_26_34_24089
1380,502.0,9_26_34_24106
1381,503.0,9_26_34_24122
1382,502.0,9_26_34_24139
1383,501.0,9_26_34_24155
1384,502.0,9_26_34_24172
1385,501.0,9_26_34_24189
1386,501.0,9_26_34_24205
1387,502.0,9_26_34_24222
1388,502.0,9_26_34_24239
1389,503.0,9_26_34_24255
1390,502.0,9_26_34_24272
1391,501.0,9_26_34_24288
1392,501.0,9_26_34_24305
1393,501.0,9_26_34_24322
1394,502.0,9_26_34_24338
1395,502.0,9_26_34_24356
1396,503.0,9_26_34_24372
1397,502.0,9_26_34_24388
1398,502.0,9_26_34_24405
1399,501.0,9_26_34_24422
1400,501.0,9_26_34_24438
1401,501.0,9_26_34_24455
1402,502.0,9_26_34_24472
1403,502.0,9_26_34_24489
1404,503.0,9_26_34_24506
1405,502.0,9_26_34_24522
1406,502.0,9_26_35_24538
1407,501.0,9_26_35_24556
1408,501.0,9_26_35_24572
1409,502.0,9_26_35_24588
1410,502.0,9_26_35_24606
1411,503.0,9_26_35_24622
1412,502.0,9_26_35_24639
1413,502.0,9_26_35_24655
1414,502.0,9_26_35_24672
1415,501.0,9_26_35_24689
1416,501.0,9_26_35_24705
1417,502.0,9_26_35_24722
1418,502.0,9_26_35_24739
1419,502.0,9_26_35_24755
1420,503.0,9_26_35_24773
1421,503.0,9_26_35_24790
1422,501.0,9_26_35_24807
1423,501.0,9_26_35_24823
1424,501.0,9_26_35_24840
1425,502.0,9_26_35_24857
1426,502.0,9_26_35_24873
1427,503.0,9_26_35_24889
1428,503.0,9_26_35_24906
1429,502.0,9_26_35_24923
1430,501.0,9_26_35_24940
1431,501.0,9_26_35_24957
1432,501.0,9_26_35_24973
1433,502.0,9_26_35_24990
1434,503.0,9_26_35_25006
1435,503.0,9_26_35_25023
1436,502.0,9_26_35_25040
1437,501.0,9_26_35_25057
1438,501.0,9_26_35_25074
1439,501.0,9_26_35_25090
1440,501.0,9_26_35_25107
1441,502.0,9_26_35_25123
1442,503.0,9_26_35_25139
1443,503.0,9_26_35_25157
1444,502.0,9_26_35_25173
1445,501.0,9_26_35_25190
1446,501.0,9_26_35_25207
1447,501.0,9_26_35_25223
1448,502.0,9_26_35_25240
1449,502.0,9_26_35_25256
1450,502.0,9_26_35_25273
1451,502.0,9_26_35_25290
1452,502.0,9_26_35_25306
1453,501.0,9_26_35_25324
1454,501.0,9_26_35_25340
1455,501.0,9_26_35_25356
1456,502.0,9_26_35_25374
1457,503.0,9_26_35_25390
1458,503.0,9_26_35_25406
1459,502.0,9_26_35_25423
1460,501.0,9_26_35_25440
1461,501.0,9_26_35_25456
1462,501.0,9_26_35_25473
1463,501.0,9_26_35_25490
1464,503.0,9_26_35_25506
1465,502.0,9_26_35_25523
1466,502.0,9_26_36_25540
1467,502.0,9_26_36_25557
1468,501.0,9_26_36_25573
1469,501.0,9_26_36_25590
1470,501.0,9_26_36_25607
1471,501.0,9_26_36_25623
1472,502.0,9_26_36_25640
1473,502.0,9_26_36_25656
1474,502.0,9_26_36_25673
1475,502.0,9_26_36_25690
1476,501.0,9_26_36_25707
1477,501.0,9_26_36_25723
1478,501.0,9_26_36_25740
1479,502.0,9_26_36_25757
1480,502.0,9_26_36_25773
1481,503.0,9_26_36_25790
1482,502.0,9_26_36_25806
1483,501.0,9_26_36_25823
1484,501.0,9_26_36_25840
1485,501.0,9_26_36_25856
1486,502.0,9_26_36_25873
1487,502.0,9_26_36_25890
1488,502.0,9_26_36_25906
1489,503.0,9_26_36_25923
1490,503.0,9_26_36_25939
1491,501.0,9_26_36_25956
1492,501.0,9_26_36_25973
1493,501.0,9_26_36_25990
1494,502.0,9_26_36_26007
1495,502.0,9_26_36_26023
1496,502.0,9_26_36_26040
1497,503.0,9_26_36_26057
1498,502.0,9_26_36_26073
1499,501.0,9_26_36_26090
1500,500.0,9_26_36_26107
1501,501.0,9_26_36_26123
1502,502.0,9_26_36_26139
1503,502.0,9_26_36_26157
1504,503.0,9_26_36_26173
1505,502.0,9_26_36_26190
1506,502.0,9_26_36_26206
1507,501.0,9_26_36_26224
1508,501.0,9_26_36_26240
1509,502.0,9_26_36_26256
1510,502.0,9_26_36_26273
1511,503.0,9_26_36_26290
1512,502.0,9_26_36_26307
1513,502.0,9_26_36_26323
1514,501.0,9_26_36_26340
1515,501.0,9_26_36_26356
1516,501.0,9_26_36_26374
1517,502.0,9_26_36_26390
1518,503.0,9_26_36_26406
1519,503.0,9_26_36_26424
1520,502.0,9_26_36_26440
1521,502.0,9_26_36_26457
1522,501.0,9_26_36_26473
1523,501.0,9_26_36_26490
1524,501.0,9_26_36_26507
1525,502.0,9_26_36_26523
1526,503.0,9_26_37_26540
1527,502.0,9_26_37_26557
1528,502.0,9_26_37_26573
1529,502.0,9_26_37_26590
1530,501.0,9_26_37_26607
1531,501.0,9_26_37_26623
1532,501.0,9_26_37_26640
1533,502.0,9_26_37_26657
1534,502.0,9_26_37_26674
1535,503.0,9_26_37_26690
1536,502.0,9_26_37_26706
1537,501.0,9_26_37_26723
1538,502.0,9_26_37_26740
1539,501.0,9_26_37_26757
1540,502.0,9_26_37_26773
1541,503.0,9_26_37_26790
1542,502.0,9_26_37_26807
1543,503.0,9_26_37_26823
1544,503.0,9_26_37_26839
1545,501.0,9_26_37_26857
1546,501.0,9_26_37_26873
1547,502.0,9_26_37_26890
1548,502.0,9_26_37_26907
1549,503.0,9_26_37_26923
1550,503.0,9_26_37_26939
1551,503.0,9_26_37_26957
1552,502.0,9_26_37_26973
1553,501.0,9_26_37_26990
1554,501.0,9_26_37_27007
1555,502.0,9_26_37_27023
1556,502.0,9_26_37_27040
1557,503.0,9_26_37_27057
1558,503.0,9_26_37_27073
1559,502.0,9_26_37_27090
1560,501.0,9_26_37_27107
1561,501.0,9_26_37_27124
1562,502.0,9_26_37_27140
1563,502.0,9_26_37_27156
1564,503.0,9_26_37_27174
1565,503.0,9_26_37_27190
1566,502.0,9_26_37_27206
1567,502.0,9_26_37_27224
1568,501.0,9_26_37_27240
1569,501.0,9_26_37_27256
1570,502.0,9_26_37_27273
1571,502.0,9_26_37_27290
1572,503.0,9_26_37_27307
1573,503.0,9_26_37_27323
1574,502.0,9_26_37_27340
1575,502.0,9_26_37_27357
1576,502.0,9_26_37_27373
1577,501.0,9_26_37_27390
1578,501.0,9_26_37_27407
1579,502.0,9_26_37_27423
1580,503.0,9_26_37_27440
1581,502.0,9_26_37_27457
1582,502.0,9_26_37_27473
1583,502.0,9_26_37_27490
1584,501.0,9_26_37_27506
1585,501.0,9_26_38_27560
1586,502.0,9_26_38_27576
1587,502.0,9_26_38_27609
1588,502.0,9_26_38_27639
1589,503.0,9_26_38_27655
1590,502.0,9_26_38_27673
1591,501.0,9_26_38_27689
1592,501.0,9_26_38_27706
1593,501.0,9_26_38_27722
1594,503.0,9_26_38_27739
1595,503.0,9_26_38_27756
1596,503.0,9_26_38_27772
1597,502.0,9_26_38_27788
1598,502.0,9_26_38_27805
1599,502.0,9_26_38_27822
1600,501.0,9_26_38_27839
1601,501.0,9_26_38_27855
1602,503.0,9_26_38_27872
1603,502.0,9_26_38_27889
1604,502.0,9_26_38_27906
1605,502.0,9_26_38_27922
1606,502.0,9_26_38_27939
1607,501.0,9_26_38_27955
1608,502.0,9_26_38_27972
1609,502.0,9_26_38_27989
1610,502.0,9_26_38_28006
1611,502.0,9_26_38_28022
1612,502.0,9_26_38_28039
1613,502.0,9_26_38_28055
1614,502.0,9_26_38_28072
1615,501.0,9_26_38_28088
1616,502.0,9_26_38_28105
1617,502.0,9_26_38_28123
1618,503.0,9_26_38_28139
1619,502.0,9_26_38_28155
1620,503.0,9_26_38_28172
1621,503.0,9_26_38_28189
1622,501.0,9_26_38_28205
1623,502.0,9_26_38_28222
1624,501.0,9_26_38_28238
1625,502.0,9_26_38_28256
1626,503.0,9_26_38_28272
1627,503.0,9_26_38_28289
1628,502.0,9_26_38_28305
1629,501.0,9_26_38_28322
1630,501.0,9_26_38_28339
1631,501.0,9_26_38_28356
1632,502.0,9_26_38_28372
1633,502.0,9_26_38_28389
1634,503.0,9_26_38_28405
1635,502.0,9_26_38_28422
1636,502.0,9_26_38_28439
1637,501.0,9_26_38_28456
1638,502.0,9_26_38_28472
1639,501.0,9_26_38_28489
1640,502.0,9_26_38_28506
1641,502.0,9_26_38_28522
1642,503.0,9_26_39_28539
1643,503.0,9_26_39_28556
1644,502.0,9_26_39_28572
1645,501.0,9_26_39_28588
1646,501.0,9_26_39_28606
1647,501.0,9_26_39_28622
1648,502.0,9_26_39_28639
1649,503.0,9_26_39_28655
1650,502.0,9_26_39_28672
1651,502.0,9_26_39_28688
1652,502.0,9_26_39_28706
1653,501.0,9_26_39_28722
1654,501.0,9_26_39_28739
1655,501.0,9_26_39_28756
1656,502.0,9_26_39_28772
1657,503.0,9_26_39_28789
1658,503.0,9_26_39_28806
1659,502.0,9_26_39_28822
1660,502.0,9_26_39_28838
1661,501.0,9_26_39_28856
1662,502.0,9_26_39_28872
1663,502.0,9_26_39_28888
1664,503.0,9_26_39_28905
1665,503.0,9_26_39_28923
1666,502.0,9_26_39_28938
1667,502.0,9_26_39_28955
1668,501.0,9_26_39_28972
1669,501.0,9_26_39_28989
1670,502.0,9_26_39_29005
1671,502.0,9_26_39_29023
1672,502.0,9_26_39_29039
1673,502.0,9_26_39_29056
1674,502.0,9_26_39_29072
1675,502.0,9_26_39_29089
1676,501.0,9_26_39_29105
1677,501.0,9_26_39_29122
1678,502.0,9_26_39_29138
1679,503.0,9_26_39_29156
1680,502.0,9_26_39_29172
1681,502.0,9_26_39_29189
1682,502.0,9_26_39_29205
1683,501.0,9_26_39_29222
1684,501.0,9_26_39_29238
1685,501.0,9_26_39_29256
1686,502.0,9_26_39_29272
1687,502.0,9_26_39_29288
1688,502.0,9_26_39_29305
1689,503.0,9_26_39_29322
1690,503.0,9_26_39_29339
1691,501.0,9_26_39_29356
1692,500.0,9_26_39_29372
1693,500.0,9_26_39_29389
1694,501.0,9_26_39_29406
1695,502.0,9_26_39_29422
1696,502.0,9_26_39_29439
1697,502.0,9_26_39_29455
1698,501.0,9_26_39_29472
1699,500.0,9_26_39_29489
1700,500.0,9_26_39_29506
1701,501.0,9_26_39_29523
1702,502.0,9_26_40_29539
1703,502.0,9_26_40_29556
1704,502.0,9_26_40_29572
1705,501.0,9_26_40_29589
1706,500.0,9_26_40_29606
1707,500.0,9_26_40_29622
1708,500.0,9_26_40_29638
1709,501.0,9_26_40_29656
1710,502.0,9_26_40_29672
1711,502.0,9_26_40_29689
1712,502.0,9_26_40_29706
1713,502.0,9_26_40_29722
1714,501.0,9_26_40_29739
1715,500.0,9_26_40_29755
1716,501.0,9_26_40_29772
1717,501.0,9_26_40_29789
1718,502.0,9_26_40_29805
1719,502.0,9_26_40_29822
1720,502.0,9_26_40_29839
1721,502.0,9_26_40_29855
1722,501.0,9_26_40_29887
1723,501.0,9_26_40_29904
1724,501.0,9_26_40_29920
1725,502.0,9_26_40_29937
1726,502.0,9_26_40_29954
1727,502.0,9_26_40_29970
1728,502.0,9_26_40_29986
1729,501.0,9_26_40_30003
1730,499.0,9_26_40_30021
1731,490.0,9_26_40_30037
1732,491.0,9_26_40_30053
1733,498.0,9_26_40_30070
1734,507.0,9_26_40_30087
1735,512.0,9_26_40_30103
1736,503.0,9_26_40_30120
1737,488.0,9_26_40_30137
1738,474.0,9_26_40_30153
1739,469.0,9_26_40_30171
1740,478.0,9_26_40_30187
1741,488.0,9_26_40_30204
1742,496.0,9_26_40_30220
1743,496.0,9_26_40_30237
1744,483.0,9_26_40_30253
1745,469.0,9_26_40_30271
1746,456.0,9_26_40_30287
1747,460.0,9_26_40_30303
1748,469.0,9_26_40_30321
1749,478.0,9_26_40_30337
1750,486.0,9_26_40_30353
1751,478.0,9_26_40_30370
1752,464.0,9_26_40_30387
1753,451.0,9_26_40_30404
1754,443.0,9_26_40_30420
1755,452.0,9_26_40_30437
1756,462.0,9_26_40_30454
1757,471.0,9_26_40_30470
1758,474.0,9_26_40_30487
1759,460.0,9_26_40_30504
1760,448.0,9_26_40_30521
1761,435.0,9_26_41_30537
1762,436.0,9_26_41_30554
1763,446.0,9_26_41_30570
1764,456.0,9_26_41_30587
1765,465.0,9_26_41_30604
1766,459.0,9_26_41_30621
1767,447.0,9_26_41_30637
1768,434.0,9_26_41_30654
1769,422.0,9_26_41_30670
1770,431.0,9_26_41_30687
1771,441.0,9_26_41_30703
1772,451.0,9_26_41_30720
1773,459.0,9_26_41_30737
1774,448.0,9_26_41_30753
1775,435.0,9_26_41_30770
1776,423.0,9_26_41_30787
1777,417.0,9_26_41_30803
1778,427.0,9_26_41_30821
1779,438.0,9_26_41_30837
1780,448.0,9_26_41_30853
1781,450.0,9_26_41_30870
1782,438.0,9_26_41_30887
1783,425.0,9_26_41_30904
1784,413.0,9_26_41_30920
1785,415.0,9_26_41_30937
1786,426.0,9_26_41_30954
1787,436.0,9_26_41_30971
1788,446.0,9_26_41_30987
1789,441.0,9_26_41_31004
1790,429.0,9_26_41_31020
1791,417.0,9_26_41_31037
1792,405.0,9_26_41_31053
1793,415.0,9_26_41_31071
1794,425.0,9_26_41_31087
1795,435.0,9_26_41_31104
1796,444.0,9_26_41_31120
1797,433.0,9_26_41_31137
1798,421.0,9_26_41_31154
1799,409.0,9_26_41_31170
1800,404.0,9_26_41_31187
1801,414.0,9_26_41_31206
1802,425.0,9_26_41_31220
1803,435.0,9_26_41_31237
1804,438.0,9_26_41_31253
1805,426.0,9_26_41_31271
1806,414.0,9_26_41_31287
1807,403.0,9_26_41_31304
1808,404.0,9_26_41_31320
1809,414.0,9_26_41_31337
1810,425.0,9_26_41_31354
1811,435.0,9_26_41_31371
1812,432.0,9_26_41_31387
1813,420.0,9_26_41_31404
1814,408.0,9_26_41_31420
1815,397.0,9_26_41_31437
1816,404.0,9_26_41_31453
1817,416.0,9_26_41_31470
1818,427.0,9_26_41_31487
1819,436.0,9_26_41_31503
1820,426.0,9_26_41_31520
1821,414.0,9_26_42_31537
1822,403.0,9_26_42_31554
1823,395.0,9_26_42_31570
1824,407.0,9_26_42_31587
1825,418.0,9_26_42_31603
1826,428.0,9_26_42_31620
1827,432.0,9_26_42_31637
1828,420.0,9_26_42_31653
1829,409.0,9_26_42_31671
1830,397.0,9_26_42_31687
1831,397.0,9_26_42_31704
1832,408.0,9_26_42_31720
1833,419.0,9_26_42_31737
1834,429.0,9_26_42_31753
1835,427.0,9_26_42_31770
1836,415.0,9_26_42_31788
1837,403.0,9_26_42_31803
1838,393.0,9_26_42_31820
1839,400.0,9_26_42_31837
1840,410.0,9_26_42_31853
1841,421.0,9_26_42_31870
1842,431.0,9_26_42_31887
1843,422.0,9_26_42_31904
1844,411.0,9_26_42_31921
1845,399.0,9_26_42_31937
1846,391.0,9_26_42_31953
1847,402.0,9_26_42_31971
1848,413.0,9_26_42_31987
1849,424.0,9_26_42_32004
1850,429.0,9_26_42_32020
1851,417.0,9_26_42_32037
1852,406.0,9_26_42_32053
1853,395.0,9_26_42_32070
1854,394.0,9_26_42_32087
1855,405.0,9_26_42_32103
1856,416.0,9_26_42_32121
1857,426.0,9_26_42_32137
1858,425.0,9_26_42_32154
1859,413.0,9_26_42_32171
1860,401.0,9_26_42_32187
1861,391.0,9_26_42_32204
1862,397.0,9_26_42_32220
1863,408.0,9_26_42_32237
1864,419.0,9_26_42_32254
1865,429.0,9_26_42_32270
1866,420.0,9_26_42_32287
1867,409.0,9_26_42_32303
1868,397.0,9_26_42_32320
1869,389.0,9_26_42_32337
1870,399.0,9_26_42_32354
1871,411.0,9_26_42_32370
1872,421.0,9_26_42_32387
1873,428.0,9_26_42_32404
1874,416.0,9_26_42_32420
1875,404.0,9_26_42_32437
1876,393.0,9_26_42_32454
1877,391.0,9_26_42_32471
1878,403.0,9_26_42_32487
1879,413.0,9_26_42_32504
1880,424.0,9_26_42_32520
1881,424.0,9_26_43_32537
1882,412.0,9_26_43_32554
1883,401.0,9_26_43_32570
1884,390.0,9_26_43_32587
1885,395.0,9_26_43_32603
1886,406.0,9_26_43_32628
1887,417.0,9_26_43_32644
1888,427.0,9_26_43_32661
1889,419.0,9_26_43_32678
1890,408.0,9_26_43_32694
1891,396.0,9_26_43_32711
1892,387.0,9_26_43_32728
1893,398.0,9_26_43_32744
1894,409.0,9_26_43_32761
1895,420.0,9_26_43_32778
1896,427.0,9_26_43_32795
1897,416.0,9_26_43_32811
1898,404.0,9_26_43_32828
1899,393.0,9_26_43_32844
1900,390.0,9_26_43_32861
1901,402.0,9_26_43_32878
1902,412.0,9_26_43_32894
1903,423.0,9_26_43_32911
1904,423.0,9_26_43_32928
1905,412.0,9_26_43_32944
1906,400.0,9_26_43_32961
1907,389.0,9_26_43_32978
1908,394.0,9_26_43_32994
1909,404.0,9_26_43_33011
1910,415.0,9_26_43_33028
1911,426.0,9_26_43_33045
1912,420.0,9_26_43_33061
1913,408.0,9_26_43_33078
1914,397.0,9_26_43_33094
1915,386.0,9_26_43_33111
1916,397.0,9_26_43_33128
1917,407.0,9_26_43_33144
1918,419.0,9_26_43_33161
1919,427.0,9_26_43_33178
1920,415.0,9_26_43_33194
1921,404.0,9_26_43_33211
1922,393.0,9_26_43_33227
1923,389.0,9_26_43_33244
1924,401.0,9_26_43_33261
1925,411.0,9_26_43_33277
1926,422.0,9_26_43_33294
1927,424.0,9_26_43_33311
1928,412.0,9_26_43_33328
1929,400.0,9_26_43_33344
1930,389.0,9_26_43_33361
1931,393.0,9_26_43_33378
1932,404.0,9_26_43_33394
1933,415.0,9_26_43_33411
1934,425.0,9_26_43_33427
1935,420.0,9_26_43_33445
1936,407.0,9_26_43_33461
1937,396.0,9_26_43_33478
1938,386.0,9_26_43_33494
1939,396.0,9_26_43_33511
1940,407.0,9_26_43_33528
1941,418.0,9_26_44_33545
1942,427.0,9_26_44_33561
1943,416.0,9_26_44_33578
1944,404.0,9_26_44_33594
1945,393.0,9_26_44_33611
1946,389.0,9_26_44_33628
1947,399.0,9_26_44_33644
1948,410.0,9_26_44_33661
1949,421.0,9_26_44_33677
1950,424.0,9_26_44_33694
1951,412.0,9_26_44_33711
1952,400.0,9_26_44_33728
1953,389.0,9_26_44_33744
1954,392.0,9_26_44_33761
1955,403.0,9_26_44_33777
1956,414.0,9_26_44_33794
1957,425.0,9_26_44_33811
1958,420.0,9_26_44_33827
1959,409.0,9_26_44_33845
1960,397.0,9_26_44_33861
1961,386.0,9_26_44_33878
1962,396.0,9_26_44_33895
1963,407.0,9_26_44_33911
1964,417.0,9_26_44_33928
1965,426.0,9_26_44_33944
1966,416.0,9_26_44_33961
1967,405.0,9_26_44_33977
1968,393.0,9_26_44_33994
1969,388.0,9_26_44_34011
1970,399.0,9_26_44_34028
1971,410.0,9_26_44_34044
1972,421.0,9_26_44_34061
1973,425.0,9_26_44_34077
1974,412.0,9_26_44_34094
1975,400.0,9_26_44_34111
1976,390.0,9_26_44_34128
1977,392.0,9_26_44_34144
1978,403.0,9_26_44_34161
1979,413.0,9_26_44_34178
1980,424.0,9_26_44_34194
1981,420.0,9_26_44_34211
1982,408.0,9_26_44_34228
1983,397.0,9_26_44_34245
1984,387.0,9_26_44_34261
1985,395.0,9_26_44_34278
1986,406.0,9_26_44_34294
1987,417.0,9_26_44_34311
1988,426.0,9_26_44_34328
1989,416.0,9_26_44_34344
1990,405.0,9_26_44_34361
1991,394.0,9_26_44_34378
1992,388.0,9_26_44_34395
1993,398.0,9_26_44_34412
1994,409.0,9_26_44_34428
1995,420.0,9_26_44_34444
1996,424.0,9_26_44_34461
1997,413.0,9_26_44_34478
1998,401.0,9_26_44_34494
1999,390.0,9_26_44_34511
2000,391.0,9_26_44_34528
2001,402.0,9_26_45_34545
2002,413.0,9_26_45_34561
2003,423.0,9_26_45_34578
2004,421.0,9_26_45_34594
2005,409.0,9_26_45_34611
2006,397.0,9_26_45_34627
2007,386.0,9_26_45_34644
2008,394.0,9_26_45_34661
2009,405.0,9_26_45_34677
2010,416.0,9_26_45_34695
2011,426.0,9_26_45_34711
2012,416.0,9_26_45_34728
2013,405.0,9_26_45_34745
2014,394.0,9_26_45_34761
2015,387.0,9_26_45_34778
2016,397.0,9_26_45_34794
2017,409.0,9_26_45_34811
2018,419.0,9_26_45_34828
2019,424.0,9_26_45_34844
2020,412.0,9_26_45_34861
2021,400.0,9_26_45_34878
2022,390.0,9_26_45_34895
2023,390.0,9_26_45_34911
2024,401.0,9_26_45_34928
2025,412.0,9_26_45_34944
2026,422.0,9_26_45_34961
2027,420.0,9_26_45_34977
2028,408.0,9_26_45_34995
2029,396.0,9_26_45_35012
2030,386.0,9_26_45_35028
2031,393.0,9_26_45_35045
2032,405.0,9_26_45_35061
2033,415.0,9_26_45_35078
2034,426.0,9_26_45_35095
2035,416.0,9_26_45_35111
2036,405.0,9_26_45_35128
2037,394.0,9_26_45_35145
2038,386.0,9_26_45_35161
2039,397.0,9_26_45_35178
2040,408.0,9_26_45_35194
2041,418.0,9_26_45_35211
2042,424.0,9_26_45_35227
2043,412.0,9_26_45_35245
2044,400.0,9_26_45_35262
2045,390.0,9_26_45_35278
2046,389.0,9_26_45_35294
2047,400.0,9_26_45_35311
2048,412.0,9_26_45_35327
2049,422.0,9_26_45_35345
2050,420.0,9_26_45_35361
2051,408.0,9_26_45_35378
2052,397.0,9_26_45_35394
2053,386.0,9_26_45_35411
2054,393.0,9_26_45_35428
2055,404.0,9_26_45_35445
2056,415.0,9_26_45_35461
2057,425.0,9_26_45_35478
2058,416.0,9_26_45_35494
2059,404.0,9_26_45_35512
2060,393.0,9_26_45_35528
2061,385.0,9_26_46_35545
2062,396.0,9_26_46_35561
2063,407.0,9_26_46_35577
2064,417.0,9_26_46_35595
2065,424.0,9_26_46_35611
2066,413.0,9_26_46_35627
2067,401.0,9_26_46_35645
2068,390.0,9_26_46_35661
2069,389.0,9_26_46_35678
2070,399.0,9_26_46_35694
2071,410.0,9_26_46_35711
2072,421.0,9_26_46_35728
2073,421.0,9_26_46_35745
2074,408.0,9_26_46_35761
2075,397.0,9_26_46_35778
2076,386.0,9_26_46_35794
2077,392.0,9_26_46_35811
2078,403.0,9_26_46_35828
2079,414.0,9_26_46_35844
2080,424.0,9_26_46_35862
2081,417.0,9_26_46_35878
2082,405.0,9_26_46_35895
2083,394.0,9_26_46_35911
2084,384.0,9_26_46_35928
2085,395.0,9_26_46_35944
2086,406.0,9_26_46_35962
2087,417.0,9_26_46_35978
2088,424.0,9_26_46_35995
2089,413.0,9_26_46_36011
2090,401.0,9_26_46_36028
2091,390.0,9_26_46_36044
2092,387.0,9_26_46_36061
2093,398.0,9_26_46_36078
2094,409.0,9_26_46_36094
2095,420.0,9_26_46_36112
2096,420.0,9_26_46_36128
2097,409.0,9_26_46_36145
2098,398.0,9_26_46_36162
2099,387.0,9_26_46_36178
2100,391.0,9_26_46_36194
2101,402.0,9_26_46_36211
2102,413.0,9_26_46_36228
2103,423.0,9_26_46_36244
2104,417.0,9_26_46_36261
2105,406.0,9_26_46_36278
2106,394.0,9_26_46_36296
2107,384.0,9_26_46_36311
2108,394.0,9_26_46_36328
2109,405.0,9_26_46_36345
2110,416.0,9_26_46_36362
2111,425.0,9_26_46_36377
2112,413.0,9_26_46_36395
2113,402.0,9_26_46_36411
2114,391.0,9_26_46_36428
2115,387.0,9_26_46_36445
2116,398.0,9_26_46_36461
2117,409.0,9_26_46_36477
2118,419.0,9_26_46_36495
2119,421.0,9_26_46_36511
2120,409.0,9_26_46_36528
2121,398.0,9_26_47_36545
2122,386.0,9_26_47_36561
2123,391.0,9_26_47_36578
2124,402.0,9_26_47_36595
2125,413.0,9_26_47_36611
2126,424.0,9_26_47_36628
2127,417.0,9_26_47_36645
2128,405.0,9_26_47_36661
2129,394.0,9_26_47_36677
2130,384.0,9_26_47_36694
2131,395.0,9_26_47_36711
2132,406.0,9_26_47_36728
2133,416.0,9_26_47_36745
2134,424.0,9_26_47_36761
2135,413.0,9_26_47_36777
2136,402.0,9_26_47_36794
2137,391.0,9_26_47_36811
2138,387.0,9_26_47_36828
2139,398.0,9_26_47_36845
2140,409.0,9_26_47_36861
2141,419.0,9_26_47_36877
2142,421.0,9_26_47_36894
2143,410.0,9_26_47_36911
2144,398.0,9_26_47_36928
2145,387.0,9_26_47_36944
2146,390.0,9_26_47_36962
2147,402.0,9_26_47_36979
2148,412.0,9_26_47_36994
2149,423.0,9_26_47_37011
2150,417.0,9_26_47_37028
2151,406.0,9_26_47_37045
2152,394.0,9_26_47_37061
2153,384.0,9_26_47_37078
2154,393.0,9_26_47_37094
2155,404.0,9_26_47_37111
2156,415.0,9_26_47_37128
2157,425.0,9_26_47_37145
2158,413.0,9_26_47_37161
2159,402.0,9_26_47_37177
2160,391.0,9_26_47_37194
2161,386.0,9_26_47_37212
2162,397.0,9_26_47_37228
2163,408.0,9_26_47_37244
2164,419.0,9_26_47_37261
2165,422.0,9_26_47_37277
2166,410.0,9_26_47_37295
2167,398.0,9_26_47_37311
2168,387.0,9_26_47_37328
2169,390.0,9_26_47_37345
2170,401.0,9_26_47_37361
2171,411.0,9_26_47_37378
2172,422.0,9_26_47_37395
2173,418.0,9_26_47_37412
2174,406.0,9_26_47_37427
2175,396.0,9_26_47_37445
2176,384.0,9_26_47_37462
2177,393.0,9_26_47_37478
2178,404.0,9_26_47_37494
2179,415.0,9_26_47_37512
2180,425.0,9_26_47_37528
2181,416.0,9_26_48_37545
2182,404.0,9_26_48_37562
2183,393.0,9_26_48_37578
2184,387.0,9_26_48_37595
2185,398.0,9_26_48_37611
2186,409.0,9_26_48_37635
2187,419.0,9_26_48_37651
2188,424.0,9_26_48_37668
2189,412.0,9_26_48_37685
2190,401.0,9_26_48_37701
2191,390.0,9_26_48_37719
2192,390.0,9_26_48_37735
2193,401.0,9_26_48_37752
2194,412.0,9_26_48_37769
2195,423.0,9_26_48_37785
2196,420.0,9_26_48_37802
2197,408.0,9_26_48_37818
2198,397.0,9_26_48_37835
2199,385.0,9_26_48_37852
2200,394.0,9_26_48_37868
2201,405.0,9_26_48_37885
2202,416.0,9_26_48_37901
2203,426.0,9_26_48_37918
2204,417.0,9_26_48_37935
2205,404.0,9_26_48_37952
2206,393.0,9_26_48_37968
2207,386.0,9_26_48_37985
2208,397.0,9_26_48_38002
2209,409.0,9_26_48_38018
2210,419.0,9_26_48_38035
2211,424.0,9_26_48_38052
2212,413.0,9_26_48_38068
2213,401.0,9_26_48_38085
2214,390.0,9_26_48_38102
2215,389.0,9_26_48_38118
2216,401.0,9_26_48_38135
2217,412.0,9_26_48_38152
2218,422.0,9_26_48_38168
2219,421.0,9_26_48_38185
2220,409.0,9_26_48_38202
2221,398.0,9_26_48_38218
2222,387.0,9_26_48_38235
2223,393.0,9_26_48_38252
2224,404.0,9_26_48_38268
2225,415.0,9_26_48_38285
2226,425.0,9_26_48_38301
2227,416.0,9_26_48_38318
2228,404.0,9_26_48_38335
2229,393.0,9_26_48_38352
2230,385.0,9_26_48_38368
2231,396.0,9_26_48_38385
2232,407.0,9_26_48_38402
2233,417.0,9_26_48_38419
2234,423.0,9_26_48_38435
2235,412.0,9_26_48_38452
2236,401.0,9_26_48_38469
2237,390.0,9_26_48_38485
2238,388.0,9_26_48_38501
2239,399.0,9_26_48_38518
2240,410.0,9_26_49_38535
2241,421.0,9_26_49_38552
2242,419.0,9_26_49_38568
2243,407.0,9_26_49_38585
2244,396.0,9_26_49_38602
2245,386.0,9_26_49_38618
2246,392.0,9_26_49_38635
2247,403.0,9_26_49_38651
2248,414.0,9_26_49_38669
2249,424.0,9_26_49_38685
2250,415.0,9_26_49_38702
2251,404.0,9_26_49_38718
2252,393.0,9_26_49_38735
2253,383.0,9_26_49_38752
2254,395.0,9_26_49_38768
2255,405.0,9_26_49_38785
2256,416.0,9_26_49_38802
2257,423.0,9_26_49_38818
2258,412.0,9_26_49_38835
2259,401.0,9_26_49_38852
2260,389.0,9_26_49_38869
2261,387.0,9_26_49_38885
2262,398.0,9_26_49_38902
2263,409.0,9_26_49_38927
2264,419.0,9_26_49_38943
2265,421.0,9_26_49_38961
2266,408.0,9_26_49_38977
2267,397.0,9_26_49_38994
2268,386.0,9_26_49_39010
2269,390.0,9_26_49_39027
2270,402.0,9_26_49_39044
2271,413.0,9_26_49_39061
2272,423.0,9_26_49_39077
2273,416.0,9_26_49_39094
2274,405.0,9_26_49_39111
2275,393.0,9_26_49_39127
2276,383.0,9_26_49_39143
2277,394.0,9_26_49_39161
2278,406.0,9_26_49_39177
2279,415.0,9_26_49_39194
2280,424.0,9_26_49_39210
2281,413.0,9_26_49_39228
2282,400.0,9_26_49_39244
2283,389.0,9_26_49_39261
2284,386.0,9_26_49_39277
2285,397.0,9_26_49_39294
2286,408.0,9_26_49_39311
2287,419.0,9_26_49_39327
2288,420.0,9_26_49_39344
2289,409.0,9_26_49_39361
2290,397.0,9_26_49_39377
2291,386.0,9_26_49_39394
2292,390.0,9_26_49_39411
2293,401.0,9_26_49_39427
2294,412.0,9_26_49_39444
2295,422.0,9_26_49_39461
2296,416.0,9_26_49_39477
2297,405.0,9_26_49_39494
2298,394.0,9_26_49_39511
2299,384.0,9_26_49_39527
2300,394.0,9_26_50_39543
2301,405.0,9_26_50_39561
2302,415.0,9_26_50_39578
2303,424.0,9_26_50_39594
2304,412.0,9_26_50_39610
2305,401.0,9_26_50_39627
2306,390.0,9_26_50_39643
2307,386.0,9_26_50_39661
2308,397.0,9_26_50_39677
2309,408.0,9_26_50_39694
2310,419.0,9_26_50_39710
2311,420.0,9_26_50_39727
2312,409.0,9_26_50_39744
2313,397.0,9_26_50_39761
2314,386.0,9_26_50_39778
2315,389.0,9_26_50_39793
2316,400.0,9_26_50_39810
2317,411.0,9_26_50_39827
2318,422.0,9_26_50_39844
2319,417.0,9_26_50_39860
2320,405.0,9_26_50_39878
2321,394.0,9_26_50_39893
2322,383.0,9_26_50_39910
2323,394.0,9_26_50_39927
2324,404.0,9_26_50_39944
2325,415.0,9_26_50_39960
2326,425.0,9_26_50_39977
2327,413.0,9_26_50_39994
2328,402.0,9_26_50_40011
2329,391.0,9_26_50_40028
2330,384.0,9_26_50_40044
2331,396.0,9_26_50_40060
2332,407.0,9_26_50_40077
2333,418.0,9_26_50_40094
2334,422.0,9_26_50_40111
2335,410.0,9_26_50_40127
2336,399.0,9_26_50_40144
2337,388.0,9_26_50_40161
2338,389.0,9_26_50_40177
2339,400.0,9_26_50_40194
2340,411.0,9_26_50_40211
2341,421.0,9_26_50_40228
2342,418.0,9_26_50_40244
2343,407.0,9_26_50_40261
2344,395.0,9_26_50_40277
2345,385.0,9_26_50_40294
2346,392.0,9_26_50_40311
2347,404.0,9_26_50_40327
2348,414.0,9_26_50_40344
2349,425.0,9_26_50_40361
2350,414.0,9_26_50_40377
2351,403.0,9_26_50_40394
2352,391.0,9_26_50_40411
2353,385.0,9_26_50_40428
2354,396.0,9_26_50_40444
2355,407.0,9_26_50_40461
2356,418.0,9_26_50_40478
2357,423.0,9_26_50_40494
2358,411.0,9_26_50_40511
2359,399.0,9_26_50_40527
2360,389.0,9_26_51_40544
2361,389.0,9_26_51_40561
2362,400.0,9_26_51_40577
2363,411.0,9_26_51_40594
2364,422.0,9_26_51_40611
2365,419.0,9_26_51_40627
2366,407.0,9_26_51_40644
2367,396.0,9_26_51_40660
2368,385.0,9_26_51_40677
2369,392.0,9_26_51_40694
2370,404.0,9_26_51_40711
2371,415.0,9_26_51_40728
2372,425.0,9_26_51_40744
2373,416.0,9_26_51_40761
2374,404.0,9_26_51_40777
2375,393.0,9_26_51_40794
2376,385.0,9_26_51_40811
2377,396.0,9_26_51_40827
2378,406.0,9_26_51_40844
2379,418.0,9_26_51_40861
2380,423.0,9_26_51_40877
2381,411.0,9_26_51_40894
2382,400.0,9_26_51_40910
2383,389.0,9_26_51_40927
2384,388.0,9_26_51_40944
2385,399.0,9_26_51_40960
2386,410.0,9_26_51_40977
2387,421.0,9_26_51_40994
2388,420.0,9_26_51_41011
2389,408.0,9_26_51_41027
2390,396.0,9_26_51_41044
2391,385.0,9_26_51_41061
2392,392.0,9_26_51_41077
2393,403.0,9_26_51_41094
2394,413.0,9_26_51_41111
2395,424.0,9_26_51_41127
2396,416.0,9_26_51_41144
2397,404.0,9_26_51_41161
2398,393.0,9_26_51_41177
2399,384.0,9_26_51_41194
2400,395.0,9_26_51_41210
2401,407.0,9_26_51_41228
2402,417.0,9_26_51_41244
2403,424.0,9_26_51_41260
2404,412.0,9_26_51_41278
2405,401.0,9_26_51_41294
2406,390.0,9_26_51_41311
2407,388.0,9_26_51_41327
2408,400.0,9_26_51_41344
2409,411.0,9_26_51_41361
2410,421.0,9_26_51_41378
2411,421.0,9_26_51_41394
2412,409.0,9_26_51_41410
2413,397.0,9_26_51_41427
2414,386.0,9_26_51_41444
2415,392.0,9_26_51_41461
2416,403.0,9_26_51_41477
2417,413.0,9_26_51_41494
2418,424.0,9_26_51_41511
2419,417.0,9_26_51_41527
2420,405.0,9_26_52_41544
2421,394.0,9_26_52_41560
2422,384.0,9_26_52_41577
2423,395.0,9_26_52_41594
2424,407.0,9_26_52_41611
2425,417.0,9_26_52_41627
2426,425.0,9_26_52_41644
2427,413.0,9_26_52_41661
2428,401.0,9_26_52_41677
2429,390.0,9_26_52_41694
2430,387.0,9_26_52_41710
2431,399.0,9_26_52_41727
2432,410.0,9_26_52_41744
2433,420.0,9_26_52_41761
2434,421.0,9_26_52_41777
2435,409.0,9_26_52_41794
2436,398.0,9_26_52_41811
2437,387.0,9_26_52_41828
2438,391.0,9_26_52_41844
2439,402.0,9_26_52_41861
2440,413.0,9_26_52_41877
2441,424.0,9_26_52_41894
2442,417.0,9_26_52_41910
2443,406.0,9_26_52_41927
2444,394.0,9_26_52_41944
2445,384.0,9_26_52_41961
2446,395.0,9_26_52_41977
2447,406.0,9_26_52_41994
2448,417.0,9_26_52_42011
2449,425.0,9_26_52_42028
2450,414.0,9_26_52_42044
2451,402.0,9_26_52_42060
2452,391.0,9_26_52_42077
2453,387.0,9_26_52_42094
2454,398.0,9_26_52_42110
2455,409.0,9_26_52_42127
2456,420.0,9_26_52_42144
2457,421.0,9_26_52_42161
2458,410.0,9_26_52_42177
2459,399.0,9_26_52_42194
2460,387.0,9_26_52_42211
2461,390.0,9_26_52_42227
2462,401.0,9_26_52_42244
2463,412.0,9_26_52_42261
2464,423.0,9_26_52_42277
2465,417.0,9_26_52_42294
2466,405.0,9_26_52_42310
2467,394.0,9_26_52_42327
2468,383.0,9_26_52_42344
2469,392.0,9_26_52_42360
2470,403.0,9_26_52_42377
2471,414.0,9_26_52_42394
2472,422.0,9_26_52_42411
2473,411.0,9_26_52_42427
2474,399.0,9_26_52_42444
2475,389.0,9_26_52_42460
2476,383.0,9_26_52_42478
2477,394.0,9_26_52_42494
2478,406.0,9_26_52_42511
2479,416.0,9_26_52_42527
2480,418.0,9_26_53_42545
2481,405.0,9_26_53_42561
2482,394.0,9_26_53_42577
2483,384.0,9_26_53_42594
2484,385.0,9_26_53_42610
2485,396.0,9_26_53_42634
2486,408.0,9_26_53_42650
2487,418.0,9_26_53_42667
2488,411.0,9_26_53_42684
2489,400.0,9_26_53_42700
2490,390.0,9_26_53_42717
2491,378.0,9_26_53_42734
2492,387.0,9_26_53_42751
2493,398.0,9_26_53_42767
2494,410.0,9_26_53_42784
2495,418.0,9_26_53_42801
2496,407.0,9_26_53_42817
2497,395.0,9_26_53_42834
2498,385.0,9_26_53_42850
2499,378.0,9_26_53_42867
2500,390.0,9_26_53_42884
2501,401.0,9_26_53_42901
2502,412.0,9_26_53_42917
2503,414.0,9_26_53_42934
2504,402.0,9_26_53_42951
2505,391.0,9_26_53_42967
2506,380.0,9_26_53_42983
2507,381.0,9_26_53_43000
2508,394.0,9_26_53_43017
2509,404.0,9_26_53_43034
2510,415.0,9_26_53_43051
2511,410.0,9_26_53_43067
2512,399.0,9_26_53_43083
2513,387.0,9_26_53_43100
2514,377.0,9_26_53_43117
2515,385.0,9_26_53_43134
2516,397.0,9_26_53_43150
2517,408.0,9_26_53_43167
2518,417.0,9_26_53_43184
2519,406.0,9_26_53_43200
2520,395.0,9_26_53_43217
2521,384.0,9_26_53_43234
2522,377.0,9_26_53_43250
2523,388.0,9_26_53_43267
2524,399.0,9_26_53_43283
2525,410.0,9_26_53_43301
2526,414.0,9_26_53_43317
2527,403.0,9_26_53_43334
2528,392.0,9_26_53_43351
2529,381.0,9_26_53_43367
2530,381.0,9_26_53_43383
2531,393.0,9_26_53_43401
2532,404.0,9_26_53_43418
2533,414.0,9_26_53_43433
2534,412.0,9_26_53_43450
2535,400.0,9_26_53_43467
2536,389.0,9_26_53_43483
2537,379.0,9_26_53_43500
2538,386.0,9_26_53_43517
2539,397.0,9_26_54_43534
2540,408.0,9_26_54_43551
2541,419.0,9_26_54_43567
2542,410.0,9_26_54_43584
2543,398.0,9_26_54_43600
2544,387.0,9_26_54_43617
2545,379.0,9_26_54_43633
2546,392.0,9_26_54_43650
2547,402.0,9_26_54_43667
2548,414.0,9_26_54_43684
2549,419.0,9_26_54_43701
2550,406.0,9_26_54_43717
2551,396.0,9_26_54_43734
2552,384.0,9_26_54_43750
2553,385.0,9_26_54_43767
2554,396.0,9_26_54_43783
2555,406.0,9_26_54_43800
2556,417.0,9_26_54_43817
2557,416.0,9_26_54_43834
2558,404.0,9_26_54_43850
2559,393.0,9_26_54_43867
2560,383.0,9_26_54_43884
2561,389.0,9_26_54_43901
2562,400.0,9_26_54_43917
2563,411.0,9_26_54_43934
2564,421.0,9_26_54_43951
2565,413.0,9_26_54_43967
2566,402.0,9_26_54_43983
2567,390.0,9_26_54_44000
2568,382.0,9_26_54_44017
2569,393.0,9_26_54_44034
2570,404.0,9_26_54_44051
2571,415.0,9_26_54_44067
2572,421.0,9_26_54_44083
2573,410.0,9_26_54_44100
2574,399.0,9_26_54_44117
2575,388.0,9_26_54_44133
2576,386.0,9_26_54_44151
2577,397.0,9_26_54_44167
2578,408.0,9_26_54_44184
2579,419.0,9_26_54_44201
2580,419.0,9_26_54_44217
2581,407.0,9_26_54_44234
2582,396.0,9_26_54_44251
2583,385.0,9_26_54_44267
2584,390.0,9_26_54_44284
2585,401.0,9_26_54_44301
2586,412.0,9_26_54_44317
2587,423.0,9_26_54_44334
2588,415.0,9_26_54_44351
2589,404.0,9_26_54_44368
2590,393.0,9_26_54_44384
2591,383.0,9_26_54_44400
2592,394.0,9_26_54_44417
2593,405.0,9_26_54_44434
2594,416.0,9_26_54_44451
2595,423.0,9_26_54_44467
2596,413.0,9_26_54_44484
2597,401.0,9_26_54_44500
2598,390.0,9_26_54_44517
2599,386.0,9_26_55_44534
2600,398.0,9_26_55_44551
2601,409.0,9_26_55_44567
2602,419.0,9_26_55_44583
2603,420.0,9_26_55_44601
2604,408.0,9_26_55_44617
2605,398.0,9_26_55_44634
2606,387.0,9_26_55_44651
2607,391.0,9_26_55_44667
2608,402.0,9_26_55_44684
2609,412.0,9_26_55_44700
2610,423.0,9_26_55_44717
2611,416.0,9_26_55_44734
2612,404.0,9_26_55_44751
2613,393.0,9_26_55_44767
2614,383.0,9_26_55_44784
2615,395.0,9_26_55_44801
2616,405.0,9_26_55_44817
2617,417.0,9_26_55_44834
2618,424.0,9_26_55_44851
2619,413.0,9_26_55_44867
2620,401.0,9_26_55_44884
2621,390.0,9_26_55_44900
2622,386.0,9_26_55_44917
2623,398.0,9_26_55_44934
2624,409.0,9_26_55_44950
2625,420.0,9_26_55_44967
2626,422.0,9_26_55_44984
2627,410.0,9_26_55_45001
2628,398.0,9_26_55_45018
2629,387.0,9_26_55_45034
2630,391.0,9_26_55_45050
2631,401.0,9_26_55_45067
2632,413.0,9_26_55_45084
2633,423.0,9_26_55_45101
2634,417.0,9_26_55_45117
2635,406.0,9_26_55_45134
2636,394.0,9_26_55_45150
2637,384.0,9_26_55_45167
2638,394.0,9_26_55_45184
2639,405.0,9_26_55_45201
2640,416.0,9_26_55_45217
2641,424.0,9_26_55_45234
2642,414.0,9_26_55_45251
2643,403.0,9_26_55_45268
2644,391.0,9_26_55_45284
2645,386.0,9_26_55_45300
2646,398.0,9_26_55_45317
2647,409.0,9_26_55_45334
2648,419.0,9_26_55_45350
2649,422.0,9_26_55_45367
2650,410.0,9_26_55_45384
2651,398.0,9_26_55_45401
2652,388.0,9_26_55_45417
2653,390.0,9_26_55_45434
2654,401.0,9_26_55_45451
2655,412.0,9_26_55_45467
2656,423.0,9_26_55_45483
2657,418.0,9_26_55_45500
2658,407.0,9_26_55_45517
2659,395.0,9_26_56_45534
2660,385.0,9_26_56_45551
2661,394.0,9_26_56_45567
2662,404.0,9_26_56_45584
2663,416.0,9_26_56_45600
2664,424.0,9_26_56_45617
2665,414.0,9_26_56_45633
2666,402.0,9_26_56_45650
2667,391.0,9_26_56_45667
2668,385.0,9_26_56_45684
2669,397.0,9_26_56_45700
2670,408.0,9_26_56_45717
2671,419.0,9_26_56_45734
2672,423.0,9_26_56_45750
2673,411.0,9_26_56_45767
2674,399.0,9_26_56_45784
2675,388.0,9_26_56_45801
2676,389.0,9_26_56_45817
2677,400.0,9_26_56_45834
2678,412.0,9_26_56_45850
2679,422.0,9_26_56_45867
2680,418.0,9_26_56_45884
2681,406.0,9_26_56_45901
2682,395.0,9_26_56_45917
2683,385.0,9_26_56_45934
2684,394.0,9_26_56_45951
2685,404.0,9_26_56_45967
2686,415.0,9_26_56_45984
2687,425.0,9_26_56_46000
2688,415.0,9_26_56_46017
2689,403.0,9_26_56_46034
2690,392.0,9_26_56_46051
2691,384.0,9_26_56_46067
2692,396.0,9_26_56_46084
2693,406.0,9_26_56_46100
2694,417.0,9_26_56_46117
2695,423.0,9_26_56_46134
2696,411.0,9_26_56_46151
2697,400.0,9_26_56_46168
2698,388.0,9_26_56_46184
2699,388.0,9_26_56_46201
2700,400.0,9_26_56_46217
2701,410.0,9_26_56_46234
2702,421.0,9_26_56_46254
2703,419.0,9_26_56_46267
2704,407.0,9_26_56_46283
2705,396.0,9_26_56_46301
2706,385.0,9_26_56_46317
2707,392.0,9_26_56_46334
2708,403.0,9_26_56_46350
2709,414.0,9_26_56_46367
2710,424.0,9_26_56_46384
2711,416.0,9_26_56_46401
2712,404.0,9_26_56_46418
2713,393.0,9_26_56_46434
2714,384.0,9_26_56_46450
2715,396.0,9_26_56_46467
2716,407.0,9_26_56_46484
2717,418.0,9_26_56_46501
2718,424.0,9_26_56_46517
2719,412.0,9_26_57_46534
2720,401.0,9_26_57_46551
2721,390.0,9_26_57_46567
2722,388.0,9_26_57_46584
2723,400.0,9_26_57_46601
2724,410.0,9_26_57_46617
2725,421.0,9_26_57_46633
2726,420.0,9_26_57_46650
2727,408.0,9_26_57_46667
2728,397.0,9_26_57_46684
2729,387.0,9_26_57_46701
2730,391.0,9_26_57_46717
2731,403.0,9_26_57_46734
2732,414.0,9_26_57_46751
2733,424.0,9_26_57_46767
2734,416.0,9_26_57_46783
2735,404.0,9_26_57_46800
2736,393.0,9_26_57_46817
2737,384.0,9_26_57_46834
2738,396.0,9_26_57_46851
2739,407.0,9_26_57_46867
2740,417.0,9_26_57_46890
2741,424.0,9_26_57_46908
2742,412.0,9_26_57_46923
2743,401.0,9_26_57_46940
2744,390.0,9_26_57_46957
2745,388.0,9_26_57_46973
2746,399.0,9_26_57_46990
2747,410.0,9_26_57_47006
2748,421.0,9_26_57_47024
2749,421.0,9_26_57_47040
2750,409.0,9_26_57_47057
2751,398.0,9_26_57_47073
2752,386.0,9_26_57_47090
2753,391.0,9_26_57_47107
2754,402.0,9_26_57_47124
2755,413.0,9_26_57_47140
2756,423.0,9_26_57_47157
2757,416.0,9_26_57_47174
2758,405.0,9_26_57_47190
2759,394.0,9_26_57_47207
2760,384.0,9_26_57_47224
2761,395.0,9_26_57_47241
2762,406.0,9_26_57_47257
2763,417.0,9_26_57_47273
2764,424.0,9_26_57_47291
2765,413.0,9_26_57_47307
2766,401.0,9_26_57_47323
2767,391.0,9_26_57_47341
2768,387.0,9_26_57_47357
2769,398.0,9_26_57_47374
2770,409.0,9_26_57_47390
2771,420.0,9_26_57_47407
2772,421.0,9_26_57_47424
2773,410.0,9_26_57_47440
2774,398.0,9_26_57_47457
2775,387.0,9_26_57_47474
2776,391.0,9_26_57_47491
2777,402.0,9_26_57_47507
2778,413.0,9_26_57_47524
2779,424.0,9_26_58_47540
2780,418.0,9_26_58_47557
2781,406.0,9_26_58_47574
2782,394.0,9_26_58_47590
2783,384.0,9_26_58_47607
2784,395.0,9_26_58_47636
2785,406.0,9_26_58_47652
2786,417.0,9_26_58_47669
2787,425.0,9_26_58_47686
2788,413.0,9_26_58_47703
2789,402.0,9_26_58_47720
2790,391.0,9_26_58_47736
2791,386.0,9_26_58_47753
2792,398.0,9_26_58_47770
2793,409.0,9_26_58_47786
2794,419.0,9_26_58_47803
2795,422.0,9_26_58_47820
2796,409.0,9_26_58_47837
2797,398.0,9_26_58_47853
2798,387.0,9_26_58_47869
2799,390.0,9_26_58_47886
2800,402.0,9_26_58_47903
2801,412.0,9_26_58_47920
2802,423.0,9_26_58_47936
2803,418.0,9_26_58_47952
2804,406.0,9_26_58_47970
2805,395.0,9_26_58_47986
2806,384.0,9_26_58_48003
2807,394.0,9_26_58_48019
2808,405.0,9_26_58_48036
2809,416.0,9_26_58_48053
2810,425.0,9_26_58_48069
2811,415.0,9_26_58_48087
2812,403.0,9_26_58_48102
2813,391.0,9_26_58_48119
2814,386.0,9_26_58_48136
2815,398.0,9_26_58_48153
2816,408.0,9_26_58_48170
2817,419.0,9_26_58_48186
2818,423.0,9_26_58_48203
2819,411.0,9_26_58_48219
2820,399.0,9_26_58_48236
2821,388.0,9_26_58_48253
2822,390.0,9_26_58_48269
2823,401.0,9_26_58_48286
2824,412.0,9_26_58_48303
2825,423.0,9_26_58_48319
2826,418.0,9_26_58_48337
2827,407.0,9_26_58_48353
2828,396.0,9_26_58_48370
2829,385.0,9_26_58_48387
2830,394.0,9_26_58_48403
2831,404.0,9_26_58_48420
2832,416.0,9_26_58_48437
2833,425.0,9_26_58_48453
2834,415.0,9_26_58_48470
2835,403.0,9_26_58_48486
2836,393.0,9_26_58_48503
2837,386.0,9_26_58_48519
2838,398.0,9_26_59_48536
2839,408.0,9_26_59_48553
2840,419.0,9_26_59_48569
2841,424.0,9_26_59_48586
2842,412.0,9_26_59_48603
2843,400.0,9_26_59_48620
2844,389.0,9_26_59_48636
2845,389.0,9_26_59_48653
2846,400.0,9_26_59_48669
2847,411.0,9_26_59_48686
2848,422.0,9_26_59_48703
2849,420.0,9_26_59_48719
2850,408.0,9_26_59_48736
2851,397.0,9_26_59_48753
2852,385.0,9_26_59_48769
2853,393.0,9_26_59_48786
2854,404.0,9_26_59_48803
2855,415.0,9_26_59_48820
2856,425.0,9_26_59_48836
2857,415.0,9_26_59_48853
2858,404.0,9_26_59_48869
2859,393.0,9_26_59_48886
2860,385.0,9_26_59_48903
2861,397.0,9_26_59_48919
2862,407.0,9_26_59_48936
2863,418.0,9_26_59_48953
2864,424.0,9_26_59_48970
2865,412.0,9_26_59_48986
2866,401.0,9_26_59_49003
2867,389.0,9_26_59_49020
2868,389.0,9_26_59_49036
2869,400.0,9_26_59_49053
2870,411.0,9_26_59_49070
2871,422.0,9_26_59_49086
2872,419.0,9_26_59_49103
2873,408.0,9_26_59_49119
2874,396.0,9_26_59_49136
2875,385.0,9_26_59_49153
2876,392.0,9_26_59_49169
2877,403.0,9_26_59_49186
2878,414.0,9_26_59_49203
2879,425.0,9_26_59_49220
2880,416.0,9_26_59_49236
2881,404.0,9_26_59_49253
2882,393.0,9_26_59_49270
2883,384.0,9_26_59_49287
2884,396.0,9_26_59_49303
2885,407.0,9_26_59_49320
2886,417.0,9_26_59_49336
2887,423.0,9_26_59_49353
2888,412.0,9_26_59_49370
2889,400.0,9_26_59_49387
2890,389.0,9_26_59_49403
2891,387.0,9_26_59_49420
2892,399.0,9_26_59_49436
2893,410.0,9_26_59_49453
2894,421.0,9_26_59_49470
2895,420.0,9_26_59_49486
2896,408.0,9_26_59_49503
2897,396.0,9_26_59_49520
2898,385.0,9_27_0_49536
2899,391.0,9_27_0_49553
2900,402.0,9_27_0_49569
2901,413.0,9_27_0_49586
2902,424.0,9_27_0_49603
2903,416.0,9_27_0_49620
2904,404.0,9_27_0_49637
2905,393.0,9_27_0_49653
2906,384.0,9_27_0_49669
2907,395.0,9_27_0_49687
2908,406.0,9_27_0_49703
2909,417.0,9_27_0_49720
2910,423.0,9_27_0_49736
2911,412.0,9_27_0_49753
2912,400.0,9_27_0_49769
2913,389.0,9_27_0_49786
2914,387.0,9_27_0_49803
2915,399.0,9_27_0_49820
2916,409.0,9_27_0_49837
2917,420.0,9_27_0_49853
2918,420.0,9_27_0_49870
2919,408.0,9_27_0_49887
2920,397.0,9_27_0_49903
2921,386.0,9_27_0_49920
2922,391.0,9_27_0_49936
2923,402.0,9_27_0_49953
2924,412.0,9_27_0_49970
2925,423.0,9_27_0_49986
2926,416.0,9_27_0_50003
2927,404.0,9_27_0_50020
2928,393.0,9_27_0_50036
2929,383.0,9_27_0_50053
2930,394.0,9_27_0_50069
2931,405.0,9_27_0_50087
2932,416.0,9_27_0_50103
2933,424.0,9_27_0_50119
2934,413.0,9_27_0_50136
2935,401.0,9_27_0_50153
2936,390.0,9_27_0_50170
2937,386.0,9_27_0_50186
2938,398.0,9_27_0_50203
2939,409.0,9_27_0_50220
2940,419.0,9_27_0_50236
2941,420.0,9_27_0_50253
2942,408.0,9_27_0_50270
2943,397.0,9_27_0_50287
2944,386.0,9_27_0_50303
2945,389.0,9_27_0_50319
2946,401.0,9_27_0_50337
2947,412.0,9_27_0_50353
2948,422.0,9_27_0_50370
2949,416.0,9_27_0_50387
2950,405.0,9_27_0_50403
2951,394.0,9_27_0_50420
2952,383.0,9_27_0_50436
2953,392.0,9_27_0_50453
2954,404.0,9_27_0_50469
2955,414.0,9_27_0_50486
2956,423.0,9_27_0_50503
2957,412.0,9_27_0_50519
2958,401.0,9_27_1_50536
2959,389.0,9_27_1_50553
2960,384.0,9_27_1_50569
2961,396.0,9_27_1_50587
2962,407.0,9_27_1_50603
2963,418.0,9_27_1_50620
2964,420.0,9_27_1_50637
2965,408.0,9_27_1_50653
2966,396.0,9_27_1_50670
2967,385.0,9_27_1_50686
2968,388.0,9_27_1_50703
2969,400.0,9_27_1_50720
2970,410.0,9_27_1_50736
2971,421.0,9_27_1_50754
2972,416.0,9_27_1_50770
2973,405.0,9_27_1_50786
2974,393.0,9_27_1_50803
2975,382.0,9_27_1_50820
2976,392.0,9_27_1_50837
2977,403.0,9_27_1_50853
2978,414.0,9_27_1_50870
2979,424.0,9_27_1_50886
2980,412.0,9_27_1_50903
2981,401.0,9_27_1_50919
2982,390.0,9_27_1_50937
2983,385.0,9_27_1_50953
2984,396.0,9_27_1_50970
2985,407.0,9_27_1_50987
2986,418.0,9_27_1_51003
2987,421.0,9_27_1_51019
2988,409.0,9_27_1_51036
2989,398.0,9_27_1_51053
2990,387.0,9_27_1_51069
2991,388.0,9_27_1_51087
2992,399.0,9_27_1_51103
2993,410.0,9_27_1_51120
2994,421.0,9_27_1_51137
2995,417.0,9_27_1_51153
2996,406.0,9_27_1_51170
2997,395.0,9_27_1_51186
2998,384.0,9_27_1_51203
2999,392.0,9_27_1_51220
3000,403.0,9_27_1_51236
3001,414.0,9_27_1_51253
3002,424.0,9_27_1_51270
3003,413.0,9_27_1_51286
3004,402.0,9_27_1_51303
3005,391.0,9_27_1_51320
3006,384.0,9_27_1_51336
3007,395.0,9_27_1_51353
3008,407.0,9_27_1_51370
3009,417.0,9_27_1_51386
3010,422.0,9_27_1_51403
3011,410.0,9_27_1_51420
3012,399.0,9_27_1_51436
3013,387.0,9_27_1_51453
3014,387.0,9_27_1_51470
3015,399.0,9_27_1_51487
3016,410.0,9_27_1_51504
3017,420.0,9_27_1_51520
3018,418.0,9_27_2_51536
3019,407.0,9_27_2_51553
3020,395.0,9_27_2_51570
3021,384.0,9_27_2_51586
3022,392.0,9_27_2_51603
3023,402.0,9_27_2_51619
3024,414.0,9_27_2_51637
3025,424.0,9_27_2_51653
3026,415.0,9_27_2_51670
3027,403.0,9_27_2_51687
3028,392.0,9_27_2_51703
3029,383.0,9_27_2_51720
3030,395.0,9_27_2_51737
3031,406.0,9_27_2_51753
3032,416.0,9_27_2_51770
3033,422.0,9_27_2_51787
3034,411.0,9_27_2_51803
3035,399.0,9_27_2_51820
3036,389.0,9_27_2_51836
3037,387.0,9_27_2_51854
3038,398.0,9_27_2_51870
3039,409.0,9_27_2_51887
3040,420.0,9_27_2_51903
3041,419.0,9_27_2_51920
3042,408.0,9_27_2_51936
3043,396.0,9_27_2_51953
3044,385.0,9_27_2_51970
3045,391.0,9_27_2_51986
3046,402.0,9_27_2_52003
3047,413.0,9_27_2_52020
3048,424.0,9_27_2_52036
3049,416.0,9_27_2_52053
3050,404.0,9_27_2_52069
3051,392.0,9_27_2_52087
3052,383.0,9_27_2_52103
3053,395.0,9_27_2_52120
3054,406.0,9_27_2_52136
3055,417.0,9_27_2_52153
3056,424.0,9_27_2_52170
3057,412.0,9_27_2_52187
3058,401.0,9_27_2_52203
3059,389.0,9_27_2_52219
3060,387.0,9_27_2_52237
3061,398.0,9_27_2_52253
3062,410.0,9_27_2_52270
3063,420.0,9_27_2_52287
3064,420.0,9_27_2_52303
3065,409.0,9_27_2_52320
3066,397.0,9_27_2_52336
3067,386.0,9_27_2_52353
3068,391.0,9_27_2_52369
3069,402.0,9_27_2_52387
3070,413.0,9_27_2_52403
3071,424.0,9_27_2_52420
3072,417.0,9_27_2_52436
3073,405.0,9_27_2_52453
3074,394.0,9_27_2_52470
3075,384.0,9_27_2_52486
3076,395.0,9_27_2_52503
3077,406.0,9_27_2_52520
3078,416.0,9_27_3_52537
3079,424.0,9_27_3_52553
3080,413.0,9_27_3_52570
3081,401.0,9_27_3_52586
3082,390.0,9_27_3_52603
3083,386.0,9_27_3_52620
3084,398.0,9_27_3_52651
3085,409.0,9_27_3_52668
3086,420.0,9_27_3_52684
3087,421.0,9_27_3_52700
3088,409.0,9_27_3_52717
3089,397.0,9_27_3_52734
3090,386.0,9_27_3_52750
3091,390.0,9_27_3_52767
3092,401.0,9_27_3_52784
3093,412.0,9_27_3_52801
3094,423.0,9_27_3_52817
3095,417.0,9_27_3_52834
3096,406.0,9_27_3_52850
3097,394.0,9_27_3_52867
3098,384.0,9_27_3_52884
3099,394.0,9_27_3_52918
3100,405.0,9_27_3_52934
3101,416.0,9_27_3_52951
3102,424.0,9_27_3_52968
3103,413.0,9_27_3_52985
3104,401.0,9_27_3_53001
3105,390.0,9_27_3_53018
3106,386.0,9_27_3_53034
3107,397.0,9_27_3_53051
3108,409.0,9_27_3_53068
3109,419.0,9_27_3_53084
3110,421.0,9_27_3_53101
3111,409.0,9_27_3_53118
3112,398.0,9_27_3_53134
3113,386.0,9_27_3_53151
3114,390.0,9_27_3_53167
3115,401.0,9_27_3_53184
3116,412.0,9_27_3_53202
3117,423.0,9_27_3_53218
3118,417.0,9_27_3_53234
3119,406.0,9_27_3_53251
3120,394.0,9_27_3_53267
3121,384.0,9_27_3_53285
3122,393.0,9_27_3_53301
3123,405.0,9_27_3_53318
3124,416.0,9_27_3_53334
3125,424.0,9_27_3_53351
3126,413.0,9_27_3_53367
3127,401.0,9_27_3_53385
3128,390.0,9_27_3_53401
3129,386.0,9_27_3_53418
3130,397.0,9_27_3_53435
3131,408.0,9_27_3_53451
3132,418.0,9_27_3_53468
3133,421.0,9_27_3_53484
3134,410.0,9_27_3_53501
3135,398.0,9_27_3_53518
3136,387.0,9_27_4_53535
3137,388.0,9_27_4_53551
3138,400.0,9_27_4_53567
3139,411.0,9_27_4_53584
3140,422.0,9_27_4_53601
3141,417.0,9_27_4_53617
3142,406.0,9_27_4_53635
3143,394.0,9_27_4_53651
3144,384.0,9_27_4_53668
3145,393.0,9_27_4_53685
3146,403.0,9_27_4_53701
3147,414.0,9_27_4_53718
3148,424.0,9_27_4_53735
3149,413.0,9_27_4_53751
3150,402.0,9_27_4_53768
3151,390.0,9_27_4_53784
3152,384.0,9_27_4_53801
3153,396.0,9_27_4_53817
3154,407.0,9_27_4_53834
3155,417.0,9_27_4_53851
3156,421.0,9_27_4_53868
3157,410.0,9_27_4_53885
3158,398.0,9_27_4_53901
3159,387.0,9_27_4_53918
3160,388.0,9_27_4_53935
3161,400.0,9_27_4_53952
3162,411.0,9_27_4_53968
3163,421.0,9_27_4_53985
3164,417.0,9_27_4_54001
3165,405.0,9_27_4_54018
3166,394.0,9_27_4_54034
3167,384.0,9_27_4_54051
3168,391.0,9_27_4_54068
3169,403.0,9_27_4_54085
3170,414.0,9_27_4_54101
3171,424.0,9_27_4_54118
3172,414.0,9_27_4_54135
3173,402.0,9_27_4_54151
3174,392.0,9_27_4_54168
3175,384.0,9_27_4_54184
3176,395.0,9_27_4_54202
3177,406.0,9_27_4_54218
3178,417.0,9_27_4_54234
3179,422.0,9_27_4_54251
3180,411.0,9_27_4_54267
3181,399.0,9_27_4_54285
3182,388.0,9_27_4_54301
3183,387.0,9_27_4_54318
3184,398.0,9_27_4_54334
3185,409.0,9_27_4_54351
3186,420.0,9_27_4_54368
3187,419.0,9_27_4_54385
3188,407.0,9_27_4_54401
3189,396.0,9_27_4_54418
3190,385.0,9_27_4_54434
3191,391.0,9_27_4_54451
3192,402.0,9_27_4_54468
3193,414.0,9_27_4_54485
3194,424.0,9_27_4_54502
3195,416.0,9_27_4_54518
3196,403.0,9_27_5_54535
3197,392.0,9_27_5_54551
3198,384.0,9_27_5_54568
3199,395.0,9_27_5_54584
3200,406.0,9_27_5_54601
3201,417.0,9_27_5_54618
3202,424.0,9_27_5_54635
3203,411.0,9_27_5_54651
3204,400.0,9_27_5_54667
3205,389.0,9_27_5_54684
3206,387.0,9_27_5_54701
3207,399.0,9_27_5_54718
3208,410.0,9_27_5_54734
3209,420.0,9_27_5_54751
3210,420.0,9_27_5_54767
3211,408.0,9_27_5_54785
3212,397.0,9_27_5_54802
3213,386.0,9_27_5_54818
3214,391.0,9_27_5_54835
3215,403.0,9_27_5_54851
3216,413.0,9_27_5_54868
3217,423.0,9_27_5_54884
3218,416.0,9_27_5_54901
3219,405.0,9_27_5_54918
3220,394.0,9_27_5_54934
3221,384.0,9_27_5_54951
3222,395.0,9_27_5_54968
3223,406.0,9_27_5_54984
3224,417.0,9_27_5_55001
3225,424.0,9_27_5_55018
3226,413.0,9_27_5_55035
3227,401.0,9_27_5_55051
3228,390.0,9_27_5_55068
3229,387.0,9_27_5_55084
3230,398.0,9_27_5_55101
3231,410.0,9_27_5_55118
3232,420.0,9_27_5_55135
3233,421.0,9_27_5_55151
3234,409.0,9_27_5_55168
3235,397.0,9_27_5_55184
3236,386.0,9_27_5_55201
3237,390.0,9_27_5_55217
3238,402.0,9_27_5_55234
3239,412.0,9_27_5_55252
3240,423.0,9_27_5_55268
3241,416.0,9_27_5_55285
3242,404.0,9_27_5_55301
3243,394.0,9_27_5_55318
3244,384.0,9_27_5_55334
3245,394.0,9_27_5_55352
3246,405.0,9_27_5_55368
3247,416.0,9_27_5_55385
3248,424.0,9_27_5_55402
3249,413.0,9_27_5_55418
3250,401.0,9_27_5_55435
3251,390.0,9_27_5_55451
3252,386.0,9_27_5_55468
3253,397.0,9_27_5_55484
3254,408.0,9_27_5_55501
3255,419.0,9_27_5_55518
3256,421.0,9_27_6_55534
3257,409.0,9_27_6_55552
3258,398.0,9_27_6_55568
3259,387.0,9_27_6_55584
3260,390.0,9_27_6_55601
3261,401.0,9_27_6_55618
3262,412.0,9_27_6_55634
3263,422.0,9_27_6_55651
3264,417.0,9_27_6_55668
3265,405.0,9_27_6_55685
3266,394.0,9_27_6_55701
3267,384.0,9_27_6_55718
3268,393.0,9_27_6_55734
3269,405.0,9_27_6_55751
3270,415.0,9_27_6_55768
3271,424.0,9_27_6_55785
3272,413.0,9_27_6_55801
3273,402.0,9_27_6_55817
3274,391.0,9_27_6_55835
3275,386.0,9_27_6_55851
3276,397.0,9_27_6_55868
3277,408.0,9_27_6_55884
3278,418.0,9_27_6_55901
3279,422.0,9_27_6_55918
3280,409.0,9_27_6_55935
3281,398.0,9_27_6_55951
3282,387.0,9_27_6_55968
3283,389.0,9_27_6_55984
3284,400.0,9_27_6_56001
3285,412.0,9_27_6_56018
3286,422.0,9_27_6_56034
3287,418.0,9_27_6_56051
3288,406.0,9_27_6_56068
3289,395.0,9_27_6_56085
3290,384.0,9_27_6_56101
3291,393.0,9_27_6_56118
3292,404.0,9_27_6_56135
3293,414.0,9_27_6_56151
3294,424.0,9_27_6_56168
3295,414.0,9_27_6_56185
3296,402.0,9_27_6_56201
3297,391.0,9_27_6_56218
3298,385.0,9_27_6_56235
3299,396.0,9_27_6_56251
3300,407.0,9_27_6_56268
3301,418.0,9_27_6_56284
3302,422.0,9_27_6_56302
3303,411.0,9_27_6_56318
3304,399.0,9_27_6_56334
3305,387.0,9_27_6_56352
3306,389.0,9_27_6_56368
3307,400.0,9_27_6_56385
3308,411.0,9_27_6_56401
3309,422.0,9_27_6_56418
3310,418.0,9_27_6_56434
3311,407.0,9_27_6_56451
3312,396.0,9_27_6_56468
3313,384.0,9_27_6_56485
3314,392.0,9_27_6_56502
3315,403.0,9_27_6_56518
3316,415.0,9_27_7_56535
3317,425.0,9_27_7_56551
3318,415.0,9_27_7_56567
3319,403.0,9_27_7_56585
3320,392.0,9_27_7_56602
3321,385.0,9_27_7_56618
3322,396.0,9_27_7_56635
3323,407.0,9_27_7_56651
3324,418.0,9_27_7_56667
3325,423.0,9_27_7_56685
3326,411.0,9_27_7_56701
3327,399.0,9_27_7_56718
3328,388.0,9_27_7_56735
3329,388.0,9_27_7_56751
3330,400.0,9_27_7_56768
3331,410.0,9_27_7_56784
3332,421.0,9_27_7_56801
3333,419.0,9_27_7_56818
3334,408.0,9_27_7_56835
3335,396.0,9_27_7_56851
3336,385.0,9_27_7_56868
3337,391.0,9_27_7_56885
3338,403.0,9_27_7_56901
3339,414.0,9_27_7_56918
3340,424.0,9_27_7_56934
3341,415.0,9_27_7_56951
3342,404.0,9_27_7_56967
3343,393.0,9_27_7_56985
3344,384.0,9_27_7_57001
3345,396.0,9_27_7_57017
3346,406.0,9_27_7_57034
3347,417.0,9_27_7_57051
3348,423.0,9_27_7_57068
3349,411.0,9_27_7_57085
3350,400.0,9_27_7_57101
3351,389.0,9_27_7_57118
3352,388.0,9_27_7_57135
3353,399.0,9_27_7_57151
3354,410.0,9_27_7_57168
3355,421.0,9_27_7_57184
3356,419.0,9_27_7_57201
3357,407.0,9_27_7_57218
3358,396.0,9_27_7_57235
3359,386.0,9_27_7_57251
3360,391.0,9_27_7_57268
3361,403.0,9_27_7_57285
3362,414.0,9_27_7_57301
3363,424.0,9_27_7_57318
3364,416.0,9_27_7_57335
3365,404.0,9_27_7_57351
3366,392.0,9_27_7_57368
3367,383.0,9_27_7_57385
3368,395.0,9_27_7_57401
3369,405.0,9_27_7_57418
3370,417.0,9_27_7_57435
3371,423.0,9_27_7_57451
3372,411.0,9_27_7_57468
3373,400.0,9_27_7_57485
3374,389.0,9_27_7_57502
3375,387.0,9_27_7_57518
3376,398.0,9_27_8_57534
3377,409.0,9_27_8_57551
3378,420.0,9_27_8_57568
3379,419.0,9_27_8_57584
3380,408.0,9_27_8_57601
3381,396.0,9_27_8_57618
3382,385.0,9_27_8_57652
3383,390.0,9_27_8_57669
3384,402.0,9_27_8_57685
3385,412.0,9_27_8_57702
3386,423.0,9_27_8_57719
3387,415.0,9_27_8_57735
3388,404.0,9_27_8_57753
3389,393.0,9_27_8_57769
3390,383.0,9_27_8_57786
3391,394.0,9_27_8_57802
3392,405.0,9_27_8_57819
3393,416.0,9_27_8_57836
3394,423.0,9_27_8_57852
3395,412.0,9_27_8_57869
3396,400.0,9_27_8_57886
3397,389.0,9_27_8_57903
3398,386.0,9_27_8_57919
3399,397.0,9_27_8_57936
3400,408.0,9_27_8_57952
3401,418.0,9_27_8_57969
3402,420.0,9_27_8_57985
3403,407.0,9_27_8_58002
3404,397.0,9_27_8_58019
3405,385.0,9_27_8_58036
3406,389.0,9_27_8_58053
3407,401.0,9_27_8_58069
3408,411.0,9_27_8_58085
3409,422.0,9_27_8_58102
3410,416.0,9_27_8_58119
3411,404.0,9_27_8_58135
3412,394.0,9_27_8_58153
3413,383.0,9_27_8_58169
3414,393.0,9_27_8_58186
3415,404.0,9_27_8_58203
3416,415.0,9_27_8_58219
3417,424.0,9_27_8_58236
3418,412.0,9_27_8_58252
3419,401.0,9_27_8_58269
3420,390.0,9_27_8_58286
3421,385.0,9_27_8_58302
3422,397.0,9_27_8_58319
3423,408.0,9_27_8_58335
3424,418.0,9_27_8_58353
3425,421.0,9_27_8_58369
3426,409.0,9_27_8_58386
3427,397.0,9_27_8_58403
3428,386.0,9_27_8_58419
3429,389.0,9_27_8_58436
3430,400.0,9_27_8_58452
3431,411.0,9_27_8_58469
3432,422.0,9_27_8_58486
3433,417.0,9_27_8_58502
3434,405.0,9_27_8_58519
3435,394.0,9_27_9_58536
3436,383.0,9_27_9_58552
3437,392.0,9_27_9_58569
3438,404.0,9_27_9_58585
3439,415.0,9_27_9_58602
3440,424.0,9_27_9_58619
3441,413.0,9_27_9_58635
3442,402.0,9_27_9_58652
3443,390.0,9_27_9_58669
3444,385.0,9_27_9_58686
3445,396.0,9_27_9_58702
3446,407.0,9_27_9_58719
3447,417.0,9_27_9_58736
3448,421.0,9_27_9_58752
3449,410.0,9_27_9_58769
3450,398.0,9_27_9_58786
3451,387.0,9_27_9_58803
3452,389.0,9_27_9_58819
3453,400.0,9_27_9_58836
3454,411.0,9_27_9_58852
3455,421.0,9_27_9_58869
3456,418.0,9_27_9_58886
3457,406.0,9_27_9_58902
3458,395.0,9_27_9_58919
3459,384.0,9_27_9_58935
3460,393.0,9_27_9_58952
3461,403.0,9_27_9_58969
3462,414.0,9_27_9_58986
3463,424.0,9_27_9_59002
3464,414.0,9_27_9_59019
3465,403.0,9_27_9_59036
3466,392.0,9_27_9_59052
3467,384.0,9_27_9_59069
3468,396.0,9_27_9_59086
3469,407.0,9_27_9_59103
3470,417.0,9_27_9_59119
3471,423.0,9_27_9_59135
3472,411.0,9_27_9_59153
3473,399.0,9_27_9_59169
3474,388.0,9_27_9_59185
3475,388.0,9_27_9_59203
3476,399.0,9_27_9_59219
3477,410.0,9_27_9_59236
3478,421.0,9_27_9_59252
3479,419.0,9_27_9_59269
3480,407.0,9_27_9_59285
3481,396.0,9_27_9_59302
3482,385.0,9_27_9_59319
3483,392.0,9_27_9_59336
3484,403.0,9_27_9_59352
3485,414.0,9_27_9_59369
3486,424.0,9_27_9_59386
3487,415.0,9_27_9_59403
3488,403.0,9_27_9_59419
3489,392.0,9_27_9_59436
3490,384.0,9_27_9_59452
3491,395.0,9_27_9_59469
3492,406.0,9_27_9_59486
3493,417.0,9_27_9_59503
3494,423.0,9_27_9_59519
3495,411.0,9_27_10_59536
3496,400.0,9_27_10_59552
3497,388.0,9_27_10_59569
3498,387.0,9_27_10_59585
3499,399.0,9_27_10_59602
3500,409.0,9_27_10_59619
3501,420.0,9_27_10_59636
3502,419.0,9_27_10_59652
3503,407.0,9_27_10_59669
3504,396.0,9_27_10_59686
3505,385.0,9_27_10_59703
3506,391.0,9_27_10_59719
3507,402.0,9_27_10_59736
3508,413.0,9_27_10_59753
3509,424.0,9_27_10_59769
3510,415.0,9_27_10_59786
3511,404.0,9_27_10_59802
3512,393.0,9_27_10_59820
3513,383.0,9_27_10_59836
3514,395.0,9_27_10_59852
3515,406.0,9_27_10_59869
3516,416.0,9_27_10_59886
3517,423.0,9_27_10_59902
3518,411.0,9_27_10_59919
3519,400.0,9_27_10_59936
3520,389.0,9_27_10_59953
3521,387.0,9_27_10_59969
3522,398.0,9_27_10_59986
3523,409.0,9_27_10_60002
3524,419.0,9_27_10_60019
3525,420.0,9_27_10_60036
3526,408.0,9_27_10_60053
3527,397.0,9_27_10_60069
3528,386.0,9_27_10_60086
3529,390.0,9_27_10_60102
3530,401.0,9_27_10_60119
3531,413.0,9_27_10_60136
3532,424.0,9_27_10_60152
3533,417.0,9_27_10_60170
3534,405.0,9_27_10_60186
3535,394.0,9_27_10_60202
3536,383.0,9_27_10_60219
3537,393.0,9_27_10_60236
3538,404.0,9_27_10_60253
3539,415.0,9_27_10_60269
3540,422.0,9_27_10_60286
3541,410.0,9_27_10_60302
3542,399.0,9_27_10_60319
3543,388.0,9_27_10_60336
3544,383.0,9_27_10_60353
3545,395.0,9_27_10_60370
3546,405.0,9_27_10_60386
3547,416.0,9_27_10_60402
3548,416.0,9_27_10_60419
3549,404.0,9_27_10_60436
3550,393.0,9_27_10_60452
3551,382.0,9_27_10_60470
3552,385.0,9_27_10_60486
3553,396.0,9_27_10_60502
3554,406.0,9_27_10_60520
3555,417.0,9_27_11_60536
3556,410.0,9_27_11_60552
3557,398.0,9_27_11_60569
3558,388.0,9_27_11_60586
3559,377.0,9_27_11_60603
3560,386.0,9_27_11_60619
3561,397.0,9_27_11_60635
3562,409.0,9_27_11_60653
3563,417.0,9_27_11_60669
3564,406.0,9_27_11_60686
3565,395.0,9_27_11_60702
3566,384.0,9_27_11_60719
3567,378.0,9_27_11_60735
3568,390.0,9_27_11_60753
3569,401.0,9_27_11_60769
3570,412.0,9_27_11_60786
3571,413.0,9_27_11_60802
3572,401.0,9_27_11_60819
3573,390.0,9_27_11_60836
3574,380.0,9_27_11_60852
3575,382.0,9_27_11_60870
3576,393.0,9_27_11_60886
3577,404.0,9_27_11_60903
3578,415.0,9_27_11_60919
3579,410.0,9_27_11_60936
3580,399.0,9_27_11_60952
3581,387.0,9_27_11_60969
3582,377.0,9_27_11_60986
3583,387.0,9_27_11_61003
3584,398.0,9_27_11_61019
3585,409.0,9_27_11_61036
3586,418.0,9_27_11_61052
3587,407.0,9_27_11_61070
3588,396.0,9_27_11_61086
3589,385.0,9_27_11_61102
3590,379.0,9_27_11_61120
3591,392.0,9_27_11_61136
3592,402.0,9_27_11_61152
3593,413.0,9_27_11_61169
3594,416.0,9_27_11_61186
3595,405.0,9_27_11_61203
3596,393.0,9_27_11_61219
3597,383.0,9_27_11_61236
3598,384.0,9_27_11_61252
3599,396.0,9_27_11_61269
3600,406.0,9_27_11_61286
3601,417.0,9_27_11_61302
3602,413.0,9_27_11_61319
3603,402.0,9_27_11_61338
3604,391.0,9_27_11_61352
3605,380.0,9_27_11_61369
3606,388.0,9_27_11_61386
3607,400.0,9_27_11_61402
3608,411.0,9_27_11_61419
3609,420.0,9_27_11_61435
3610,410.0,9_27_11_61453
3611,398.0,9_27_11_61469
3612,387.0,9_27_11_61486
3613,380.0,9_27_11_61502
3614,391.0,9_27_11_61519
3615,402.0,9_27_12_61536
3616,412.0,9_27_12_61553
3617,416.0,9_27_12_61569
3618,404.0,9_27_12_61586
3619,393.0,9_27_12_61602
3620,382.0,9_27_12_61620
3621,380.0,9_27_12_61636
3622,392.0,9_27_12_61652
3623,403.0,9_27_12_61669
3624,414.0,9_27_12_61685
3625,410.0,9_27_12_61702
3626,398.0,9_27_12_61719
3627,387.0,9_27_12_61736
3628,377.0,9_27_12_61753
3629,381.0,9_27_12_61769
3630,392.0,9_27_12_61786
3631,403.0,9_27_12_61802
3632,413.0,9_27_12_61819
3633,402.0,9_27_12_61835
3634,391.0,9_27_12_61853
3635,380.0,9_27_12_61869
3636,371.0,9_27_12_61886
3637,378.0,9_27_12_61902
3638,390.0,9_27_12_61919
3639,400.0,9_27_12_61935
3640,402.0,9_27_12_61953
3641,391.0,9_27_12_61969
3642,381.0,9_27_12_61985
3643,370.0,9_27_12_62003
3644,363.0,9_27_12_62019
3645,372.0,9_27_12_62036
3646,384.0,9_27_12_62053
3647,393.0,9_27_12_62069
3648,386.0,9_27_12_62086
3649,376.0,9_27_12_62103
3650,366.0,9_27_12_62119
3651,355.0,9_27_12_62136
3652,352.0,9_27_12_62153
3653,362.0,9_27_12_62169
3654,373.0,9_27_12_62186
3655,379.0,9_27_12_62203
3656,368.0,9_27_12_62219
3657,359.0,9_27_12_62236
3658,349.0,9_27_12_62253
3659,339.0,9_27_12_62270
3660,339.0,9_27_12_62286
3661,351.0,9_27_12_62303
3662,362.0,9_27_12_62319
3663,361.0,9_27_12_62336
3664,351.0,9_27_12_62352
3665,342.0,9_27_12_62369
3666,332.0,9_27_12_62386
3667,324.0,9_27_12_62403
3668,328.0,9_27_12_62419
3669,340.0,9_27_12_62436
3670,348.0,9_27_12_62452
3671,342.0,9_27_12_62469
3672,333.0,9_27_12_62486
3673,324.0,9_27_12_62503
3674,315.0,9_27_12_62519
3675,310.0,9_27_13_62536
3676,315.0,9_27_13_62553
3677,328.0,9_27_13_62569
3678,331.0,9_27_13_62586
3679,324.0,9_27_13_62602
3680,315.0,9_27_13_62620
3681,306.0,9_27_13_62652
3682,298.0,9_27_13_62668
3683,296.0,9_27_13_62685
3684,304.0,9_27_13_62701
3685,316.0,9_27_13_62718
3686,315.0,9_27_13_62735
3687,306.0,9_27_13_62752
3688,298.0,9_27_13_62769
3689,290.0,9_27_13_62785
3690,283.0,9_27_13_62801
3691,285.0,9_27_13_62819
3692,296.0,9_27_13_62835
3693,304.0,9_27_13_62852
3694,300.0,9_27_13_62868
3695,292.0,9_27_13_62885
3696,284.0,9_27_13_62901
3697,276.0,9_27_13_62934
3698,271.0,9_27_13_62950
3699,276.0,9_27_13_62967
3700,289.0,9_27_13_62984
3701,294.0,9_27_13_63001
3702,287.0,9_27_13_63017
3703,279.0,9_27_13_63033
