position,GSR_Reading,Time_Stamp
0,NaN,9_24_59_1894
1,503.0,9_24_59_1908
2,503.0,9_24_59_1924
3,503.0,9_24_59_1941
4,503.0,9_24_59_1957
5,502.0,9_24_59_1975
6,503.0,9_24_59_1991
7,503.0,9_24_59_2007
8,503.0,9_24_59_2024
9,503.0,9_24_59_2041
10,503.0,9_24_59_2058
11,503.0,9_25_0_2074
12,503.0,9_25_0_2091
13,503.0,9_25_0_2108
14,503.0,9_25_0_2124
15,502.0,9_25_0_2141
16,502.0,9_25_0_2158
17,502.0,9_25_0_2175
18,503.0,9_25_0_2191
19,504.0,9_25_0_2208
20,504.0,9_25_0_2224
21,503.0,9_25_0_2241
22,503.0,9_25_0_2258
23,502.0,9_25_0_2274
24,502.0,9_25_0_2291
25,502.0,9_25_0_2308
26,503.0,9_25_0_2324
27,503.0,9_25_0_2341
28,503.0,9_25_0_2358
29,503.0,9_25_0_2374
30,502.0,9_25_0_2391
31,502.0,9_25_0_2407
32,502.0,9_25_0_2432
33,503.0,9_25_0_2448
34,502.0,9_25_0_2465
35,503.0,9_25_0_2482
36,503.0,9_25_0_2498
37,503.0,9_25_0_2515
38,502.0,9_25_0_2532
39,502.0,9_25_0_2548
40,502.0,9_25_0_2565
41,502.0,9_25_0_2582
42,503.0,9_25_0_2598
43,503.0,9_25_0_2614
44,502.0,9_25_0_2631
45,502.0,9_25_0_2649
46,502.0,9_25_0_2665
47,502.0,9_25_0_2682
48,502.0,9_25_0_2698
49,502.0,9_25_0_2715
50,503.0,9_25_0_2731
51,503.0,9_25_0_2748
52,503.0,9_25_0_2765
53,503.0,9_25_0_2782
54,502.0,9_25_0_2798
55,502.0,9_25_0_2815
56,502.0,9_25_0_2831
57,502.0,9_25_0_2848
58,503.0,9_25_0_2865
59,503.0,9_25_0_2882
60,502.0,9_25_0_2898
61,502.0,9_25_0_2914
62,502.0,9_25_0_2931
63,502.0,9_25_0_2948
64,502.0,9_25_0_2965
65,502.0,9_25_0_2981
66,503.0,9_25_0_2998
67,503.0,9_25_0_3014
68,502.0,9_25_0_3031
69,501.0,9_25_0_3048
70,502.0,9_25_1_3065
71,502.0,9_25_1_3082
72,502.0,9_25_1_3098
73,502.0,9_25_1_3115
74,503.0,9_25_1_3131
75,503.0,9_25_1_3148
76,502.0,9_25_1_3165
77,502.0,9_25_1_3181
78,502.0,9_25_1_3199
79,502.0,9_25_1_3215
80,502.0,9_25_1_3231
81,502.0,9_25_1_3248
82,503.0,9_25_1_3265
83,503.0,9_25_1_3281
84,502.0,9_25_1_3299
85,502.0,9_25_1_3314
86,502.0,9_25_1_3332
87,502.0,9_25_1_3348
88,503.0,9_25_1_3365
89,503.0,9_25_1_3382
90,503.0,9_25_1_3398
91,502.0,9_25_1_3415
92,501.0,9_25_1_3432
93,501.0,9_25_1_3448
94,501.0,9_25_1_3464
95,501.0,9_25_1_3481
96,502.0,9_25_1_3498
97,503.0,9_25_1_3515
98,502.0,9_25_1_3531
99,502.0,9_25_1_3549
100,501.0,9_25_1_3566
101,501.0,9_25_1_3581
102,502.0,9_25_1_3598
103,502.0,9_25_1_3615
104,502.0,9_25_1_3631
105,502.0,9_25_1_3649
106,502.0,9_25_1_3665
107,502.0,9_25_1_3681
108,501.0,9_25_1_3698
109,502.0,9_25_1_3715
110,502.0,9_25_1_3731
111,502.0,9_25_1_3748
112,502.0,9_25_1_3765
113,502.0,9_25_1_3782
114,502.0,9_25_1_3798
115,501.0,9_25_1_3815
116,501.0,9_25_1_3831
117,502.0,9_25_1_3848
118,501.0,9_25_1_3865
119,502.0,9_25_1_3882
120,502.0,9_25_1_3898
121,502.0,9_25_1_3915
122,502.0,9_25_1_3931
123,502.0,9_25_1_3948
124,501.0,9_25_1_3965
125,501.0,9_25_1_3982
126,502.0,9_25_1_3998
127,502.0,9_25_1_4015
128,503.0,9_25_1_4031
129,502.0,9_25_1_4048
130,502.0,9_25_2_4065
131,501.0,9_25_2_4082
132,502.0,9_25_2_4098
133,501.0,9_25_2_4115
134,502.0,9_25_2_4131
135,502.0,9_25_2_4148
136,502.0,9_25_2_4165
137,502.0,9_25_2_4182
138,501.0,9_25_2_4198
139,501.0,9_25_2_4215
140,502.0,9_25_2_4231
141,501.0,9_25_2_4248
142,502.0,9_25_2_4265
143,502.0,9_25_2_4281
144,502.0,9_25_2_4298
145,502.0,9_25_2_4315
146,502.0,9_25_2_4331
147,501.0,9_25_2_4348
148,501.0,9_25_2_4365
149,502.0,9_25_2_4382
150,502.0,9_25_2_4398
151,502.0,9_25_2_4415
152,502.0,9_25_2_4431
153,501.0,9_25_2_4448
154,502.0,9_25_2_4465
155,502.0,9_25_2_4481
156,502.0,9_25_2_4498
157,502.0,9_25_2_4514
158,503.0,9_25_2_4532
159,502.0,9_25_2_4548
160,502.0,9_25_2_4565
161,502.0,9_25_2_4581
162,502.0,9_25_2_4598
163,501.0,9_25_2_4615
164,502.0,9_25_2_4632
165,503.0,9_25_2_4648
166,503.0,9_25_2_4665
167,503.0,9_25_2_4681
168,502.0,9_25_2_4698
169,501.0,9_25_2_4714
170,501.0,9_25_2_4731
171,501.0,9_25_2_4755
172,501.0,9_25_2_4771
173,502.0,9_25_2_4788
174,502.0,9_25_2_4805
175,502.0,9_25_2_4821
176,502.0,9_25_2_4838
177,501.0,9_25_2_4854
178,501.0,9_25_2_4871
179,502.0,9_25_2_4888
180,502.0,9_25_2_4905
181,502.0,9_25_2_4921
182,502.0,9_25_2_4938
183,502.0,9_25_2_4955
184,501.0,9_25_2_4971
185,501.0,9_25_2_4988
186,502.0,9_25_2_5005
187,502.0,9_25_2_5021
188,502.0,9_25_2_5038
189,502.0,9_25_2_5055
190,503.0,9_25_3_5071
191,502.0,9_25_3_5089
192,501.0,9_25_3_5105
193,501.0,9_25_3_5122
194,502.0,9_25_3_5138
195,502.0,9_25_3_5155
196,502.0,9_25_3_5171
197,502.0,9_25_3_5188
198,502.0,9_25_3_5205
199,502.0,9_25_3_5222
200,501.0,9_25_3_5238
201,502.0,9_25_3_5255
202,502.0,9_25_3_5271
203,502.0,9_25_3_5289
204,502.0,9_25_3_5304
205,502.0,9_25_3_5322
206,501.0,9_25_3_5338
207,501.0,9_25_3_5355
208,501.0,9_25_3_5371
209,501.0,9_25_3_5388
210,502.0,9_25_3_5405
211,501.0,9_25_3_5421
212,502.0,9_25_3_5438
213,502.0,9_25_3_5455
214,502.0,9_25_3_5472
215,501.0,9_25_3_5489
216,502.0,9_25_3_5505
217,501.0,9_25_3_5522
218,502.0,9_25_3_5538
219,502.0,9_25_3_5555
220,502.0,9_25_3_5572
221,501.0,9_25_3_5588
222,501.0,9_25_3_5605
223,501.0,9_25_3_5621
224,501.0,9_25_3_5638
225,501.0,9_25_3_5655
226,501.0,9_25_3_5671
227,503.0,9_25_3_5689
228,502.0,9_25_3_5704
229,502.0,9_25_3_5721
230,501.0,9_25_3_5738
231,501.0,9_25_3_5755
232,501.0,9_25_3_5772
233,502.0,9_25_3_5789
234,502.0,9_25_3_5804
235,503.0,9_25_3_5822
236,502.0,9_25_3_5839
237,502.0,9_25_3_5854
238,502.0,9_25_3_5872
239,502.0,9_25_3_5888
240,501.0,9_25_3_5905
241,502.0,9_25_3_5921
242,502.0,9_25_3_5938
243,502.0,9_25_3_5955
244,502.0,9_25_3_5972
245,501.0,9_25_3_5988
246,501.0,9_25_3_6004
247,502.0,9_25_3_6022
248,501.0,9_25_3_6038
249,502.0,9_25_3_6055
250,503.0,9_25_4_6072
251,502.0,9_25_4_6088
252,502.0,9_25_4_6105
253,502.0,9_25_4_6122
254,502.0,9_25_4_6139
255,501.0,9_25_4_6155
256,502.0,9_25_4_6172
257,502.0,9_25_4_6188
258,503.0,9_25_4_6205
259,502.0,9_25_4_6222
260,502.0,9_25_4_6238
261,501.0,9_25_4_6255
262,502.0,9_25_4_6271
263,502.0,9_25_4_6288
264,502.0,9_25_4_6305
265,503.0,9_25_4_6321
266,503.0,9_25_4_6338
267,502.0,9_25_4_6355
268,502.0,9_25_4_6371
269,501.0,9_25_4_6388
270,501.0,9_25_4_6405
271,501.0,9_25_4_6422
272,502.0,9_25_4_6439
273,502.0,9_25_4_6455
274,502.0,9_25_4_6472
275,502.0,9_25_4_6489
276,501.0,9_25_4_6505
277,501.0,9_25_4_6522
278,501.0,9_25_4_6539
279,502.0,9_25_4_6555
280,502.0,9_25_4_6572
281,503.0,9_25_4_6589
282,502.0,9_25_4_6605
283,502.0,9_25_4_6622
284,502.0,9_25_4_6638
285,502.0,9_25_4_6655
286,501.0,9_25_4_6672
287,502.0,9_25_4_6689
288,502.0,9_25_4_6705
289,503.0,9_25_4_6722
290,503.0,9_25_4_6738
291,502.0,9_25_4_6755
292,502.0,9_25_4_6771
293,501.0,9_25_4_6789
294,501.0,9_25_4_6804
295,502.0,9_25_4_6821
296,502.0,9_25_4_6839
297,502.0,9_25_4_6855
298,502.0,9_25_4_6872
299,502.0,9_25_4_6889
300,501.0,9_25_4_6906
301,501.0,9_25_4_6922
302,501.0,9_25_4_6939
303,502.0,9_25_4_6955
304,502.0,9_25_4_6971
305,502.0,9_25_4_6989
306,502.0,9_25_4_7005
307,501.0,9_25_4_7022
308,501.0,9_25_4_7038
309,501.0,9_25_4_7055
310,502.0,9_25_5_7072
311,503.0,9_25_5_7088
312,503.0,9_25_5_7105
313,502.0,9_25_5_7122
314,502.0,9_25_5_7138
315,502.0,9_25_5_7155
316,501.0,9_25_5_7172
317,502.0,9_25_5_7188
318,502.0,9_25_5_7205
319,502.0,9_25_5_7221
320,502.0,9_25_5_7238
321,502.0,9_25_5_7255
322,502.0,9_25_5_7272
323,502.0,9_25_5_7288
324,501.0,9_25_5_7305
325,502.0,9_25_5_7321
326,502.0,9_25_5_7338
327,502.0,9_25_5_7355
328,502.0,9_25_5_7371
329,502.0,9_25_5_7388
330,501.0,9_25_5_7405
331,502.0,9_25_5_7421
332,501.0,9_25_5_7438
333,501.0,9_25_5_7455
334,502.0,9_25_5_7472
335,502.0,9_25_5_7488
336,502.0,9_25_5_7505
337,502.0,9_25_5_7522
338,502.0,9_25_5_7539
339,501.0,9_25_5_7556
340,502.0,9_25_5_7571
341,502.0,9_25_5_7588
342,502.0,9_25_5_7605
343,502.0,9_25_5_7621
344,502.0,9_25_5_7638
345,502.0,9_25_5_7655
346,502.0,9_25_5_7672
347,501.0,9_25_5_7688
348,501.0,9_25_5_7705
349,502.0,9_25_5_7721
350,503.0,9_25_5_7738
351,502.0,9_25_5_7755
352,502.0,9_25_5_7772
353,502.0,9_25_5_7789
354,501.0,9_25_5_7805
355,501.0,9_25_5_7821
356,501.0,9_25_5_7839
357,502.0,9_25_5_7855
358,502.0,9_25_5_7872
359,502.0,9_25_5_7889
360,502.0,9_25_5_7905
361,502.0,9_25_5_7922
362,502.0,9_25_5_7938
363,501.0,9_25_5_7955
364,501.0,9_25_5_7972
365,502.0,9_25_5_7989
366,502.0,9_25_5_8005
367,502.0,9_25_5_8021
368,502.0,9_25_5_8038
369,501.0,9_25_5_8055
370,501.0,9_25_6_8072
371,501.0,9_25_6_8088
372,502.0,9_25_6_8105
373,503.0,9_25_6_8122
374,503.0,9_25_6_8138
375,502.0,9_25_6_8155
376,502.0,9_25_6_8172
377,501.0,9_25_6_8188
378,501.0,9_25_6_8205
379,502.0,9_25_6_8222
380,503.0,9_25_6_8238
381,503.0,9_25_6_8255
382,502.0,9_25_6_8272
383,502.0,9_25_6_8288
384,501.0,9_25_6_8305
385,502.0,9_25_6_8322
386,501.0,9_25_6_8338
387,502.0,9_25_6_8355
388,503.0,9_25_6_8371
389,502.0,9_25_6_8388
390,502.0,9_25_6_8405
391,502.0,9_25_6_8421
392,502.0,9_25_6_8438
393,502.0,9_25_6_8455
394,502.0,9_25_6_8471
395,502.0,9_25_6_8488
396,502.0,9_25_6_8505
397,502.0,9_25_6_8522
398,502.0,9_25_6_8538
399,502.0,9_25_6_8555
400,501.0,9_25_6_8572
401,502.0,9_25_6_8588
402,502.0,9_25_6_8605
403,502.0,9_25_6_8622
404,502.0,9_25_6_8638
405,503.0,9_25_6_8655
406,502.0,9_25_6_8671
407,501.0,9_25_6_8688
408,501.0,9_25_6_8705
409,502.0,9_25_6_8721
410,502.0,9_25_6_8738
411,502.0,9_25_6_8755
412,502.0,9_25_6_8772
413,502.0,9_25_6_8788
414,502.0,9_25_6_8805
415,501.0,9_25_6_8822
416,501.0,9_25_6_8838
417,501.0,9_25_6_8855
418,502.0,9_25_6_8871
419,503.0,9_25_6_8888
420,502.0,9_25_6_8905
421,503.0,9_25_6_8921
422,502.0,9_25_6_8938
423,501.0,9_25_6_8955
424,501.0,9_25_6_8971
425,501.0,9_25_6_8988
426,502.0,9_25_6_9005
427,503.0,9_25_6_9022
428,502.0,9_25_6_9038
429,502.0,9_25_6_9055
430,501.0,9_25_7_9072
431,502.0,9_25_7_9088
432,502.0,9_25_7_9105
433,502.0,9_25_7_9121
434,502.0,9_25_7_9138
435,502.0,9_25_7_9155
436,502.0,9_25_7_9171
437,502.0,9_25_7_9188
438,502.0,9_25_7_9205
439,501.0,9_25_7_9222
440,502.0,9_25_7_9239
441,501.0,9_25_7_9254
442,502.0,9_25_7_9271
443,502.0,9_25_7_9288
444,502.0,9_25_7_9305
445,502.0,9_25_7_9322
446,501.0,9_25_7_9339
447,502.0,9_25_7_9355
448,502.0,9_25_7_9371
449,502.0,9_25_7_9388
450,502.0,9_25_7_9405
451,503.0,9_25_7_9422
452,502.0,9_25_7_9439
453,502.0,9_25_7_9455
454,502.0,9_25_7_9471
455,502.0,9_25_7_9488
456,502.0,9_25_7_9505
457,503.0,9_25_7_9522
458,502.0,9_25_7_9538
459,502.0,9_25_7_9555
460,501.0,9_25_7_9572
461,501.0,9_25_7_9589
462,502.0,9_25_7_9605
463,501.0,9_25_7_9621
464,502.0,9_25_7_9638
465,502.0,9_25_7_9655
466,503.0,9_25_7_9672
467,502.0,9_25_7_9688
468,502.0,9_25_7_9705
469,501.0,9_25_7_9722
470,501.0,9_25_7_9739
471,502.0,9_25_7_9761
472,502.0,9_25_7_9777
473,502.0,9_25_7_9794
474,503.0,9_25_7_9811
475,502.0,9_25_7_9828
476,502.0,9_25_7_9844
477,501.0,9_25_7_9861
478,502.0,9_25_7_9878
479,502.0,9_25_7_9894
480,502.0,9_25_7_9911
481,502.0,9_25_7_9928
482,502.0,9_25_7_9944
483,502.0,9_25_7_9961
484,501.0,9_25_7_9977
485,501.0,9_25_7_9994
486,501.0,9_25_7_10011
487,501.0,9_25_7_10028
488,502.0,9_25_7_10045
489,502.0,9_25_8_10061
490,502.0,9_25_8_10077
491,502.0,9_25_8_10094
492,501.0,9_25_8_10111
493,501.0,9_25_8_10128
494,501.0,9_25_8_10144
495,502.0,9_25_8_10161
496,502.0,9_25_8_10177
497,503.0,9_25_8_10194
498,502.0,9_25_8_10211
499,501.0,9_25_8_10228
500,501.0,9_25_8_10244
501,501.0,9_25_8_10261
502,502.0,9_25_8_10278
503,502.0,9_25_8_10295
504,503.0,9_25_8_10311
505,502.0,9_25_8_10328
506,502.0,9_25_8_10345
507,502.0,9_25_8_10361
508,501.0,9_25_8_10378
509,501.0,9_25_8_10395
510,502.0,9_25_8_10412
511,502.0,9_25_8_10428
512,502.0,9_25_8_10453
513,503.0,9_25_8_10470
514,502.0,9_25_8_10486
515,502.0,9_25_8_10504
516,501.0,9_25_8_10521
517,501.0,9_25_8_10537
518,501.0,9_25_8_10554
519,502.0,9_25_8_10570
520,502.0,9_25_8_10587
521,502.0,9_25_8_10604
522,502.0,9_25_8_10621
523,502.0,9_25_8_10637
524,501.0,9_25_8_10654
525,502.0,9_25_8_10670
526,502.0,9_25_8_10687
527,502.0,9_25_8_10704
528,502.0,9_25_8_10720
529,502.0,9_25_8_10736
530,501.0,9_25_8_10754
531,501.0,9_25_8_10770
532,502.0,9_25_8_10787
533,501.0,9_25_8_10804
534,503.0,9_25_8_10820
535,502.0,9_25_8_10837
536,503.0,9_25_8_10854
537,502.0,9_25_8_10871
538,501.0,9_25_8_10887
539,501.0,9_25_8_10904
540,502.0,9_25_8_10920
541,502.0,9_25_8_10937
542,503.0,9_25_8_10954
543,502.0,9_25_8_10970
544,502.0,9_25_8_10987
545,502.0,9_25_8_11003
546,501.0,9_25_8_11020
547,502.0,9_25_8_11037
548,502.0,9_25_8_11053
549,502.0,9_25_9_11070
550,502.0,9_25_9_11087
551,502.0,9_25_9_11104
552,502.0,9_25_9_11120
553,502.0,9_25_9_11137
554,501.0,9_25_9_11153
555,501.0,9_25_9_11170
556,502.0,9_25_9_11187
557,502.0,9_25_9_11203
558,502.0,9_25_9_11220
559,502.0,9_25_9_11237
560,502.0,9_25_9_11254
561,501.0,9_25_9_11270
562,501.0,9_25_9_11287
563,502.0,9_25_9_11304
564,502.0,9_25_9_11320
565,502.0,9_25_9_11336
566,502.0,9_25_9_11353
567,502.0,9_25_9_11371
568,502.0,9_25_9_11386
569,501.0,9_25_9_11404
570,501.0,9_25_9_11421
571,501.0,9_25_9_11437
572,502.0,9_25_9_11454
573,503.0,9_25_9_11471
574,503.0,9_25_9_11487
575,502.0,9_25_9_11504
576,502.0,9_25_9_11520
577,501.0,9_25_9_11537
578,501.0,9_25_9_11553
579,502.0,9_25_9_11570
580,502.0,9_25_9_11587
581,502.0,9_25_9_11603
582,502.0,9_25_9_11620
583,502.0,9_25_9_11637
584,501.0,9_25_9_11653
585,501.0,9_25_9_11670
586,501.0,9_25_9_11687
587,502.0,9_25_9_11703
588,502.0,9_25_9_11720
589,503.0,9_25_9_11737
590,502.0,9_25_9_11754
591,502.0,9_25_9_11770
592,501.0,9_25_9_11786
593,501.0,9_25_9_11803
594,502.0,9_25_9_11820
595,502.0,9_25_9_11837
596,502.0,9_25_9_11853
597,502.0,9_25_9_11870
598,502.0,9_25_9_11887
599,501.0,9_25_9_11904
600,501.0,9_25_9_11921
601,501.0,9_25_9_11936
602,502.0,9_25_9_11953
603,503.0,9_25_9_11970
604,502.0,9_25_9_11987
605,502.0,9_25_9_12003
606,502.0,9_25_9_12020
607,501.0,9_25_9_12037
608,501.0,9_25_9_12054
609,502.0,9_25_10_12070
610,502.0,9_25_10_12086
611,502.0,9_25_10_12103
612,502.0,9_25_10_12120
613,502.0,9_25_10_12137
614,501.0,9_25_10_12154
615,502.0,9_25_10_12170
616,501.0,9_25_10_12187
617,501.0,9_25_10_12203
618,502.0,9_25_10_12220
619,502.0,9_25_10_12237
620,502.0,9_25_10_12254
621,502.0,9_25_10_12270
622,501.0,9_25_10_12287
623,501.0,9_25_10_12304
624,502.0,9_25_10_12320
625,502.0,9_25_10_12337
626,502.0,9_25_10_12354
627,502.0,9_25_10_12371
628,502.0,9_25_10_12387
629,502.0,9_25_10_12403
630,502.0,9_25_10_12420
631,501.0,9_25_10_12437
632,502.0,9_25_10_12453
633,501.0,9_25_10_12470
634,502.0,9_25_10_12487
635,502.0,9_25_10_12504
636,502.0,9_25_10_12520
637,502.0,9_25_10_12537
638,501.0,9_25_10_12554
639,501.0,9_25_10_12570
640,501.0,9_25_10_12587
641,501.0,9_25_10_12603
642,503.0,9_25_10_12620
643,502.0,9_25_10_12637
644,503.0,9_25_10_12653
645,502.0,9_25_10_12671
646,501.0,9_25_10_12687
647,501.0,9_25_10_12704
648,501.0,9_25_10_12720
649,502.0,9_25_10_12737
650,503.0,9_25_10_12754
651,502.0,9_25_10_12771
652,502.0,9_25_10_12787
653,501.0,9_25_10_12804
654,502.0,9_25_10_12820
655,502.0,9_25_10_12837
656,502.0,9_25_10_12853
657,502.0,9_25_10_12870
658,502.0,9_25_10_12887
659,502.0,9_25_10_12904
660,502.0,9_25_10_12921
661,501.0,9_25_10_12937
662,501.0,9_25_10_12954
663,502.0,9_25_10_12971
664,502.0,9_25_10_12986
665,503.0,9_25_10_13003
666,502.0,9_25_10_13020
667,502.0,9_25_10_13037
668,502.0,9_25_10_13053
669,501.0,9_25_11_13070
670,501.0,9_25_11_13087
671,502.0,9_25_11_13104
672,502.0,9_25_11_13120
673,502.0,9_25_11_13137
674,502.0,9_25_11_13154
675,502.0,9_25_11_13170
676,501.0,9_25_11_13187
677,501.0,9_25_11_13204
678,501.0,9_25_11_13221
679,501.0,9_25_11_13237
680,502.0,9_25_11_13253
681,502.0,9_25_11_13271
682,502.0,9_25_11_13287
683,502.0,9_25_11_13304
684,501.0,9_25_11_13321
685,501.0,9_25_11_13337
686,502.0,9_25_11_13354
687,502.0,9_25_11_13370
688,502.0,9_25_11_13387
689,503.0,9_25_11_13403
690,503.0,9_25_11_13421
691,502.0,9_25_11_13436
692,501.0,9_25_11_13453
693,501.0,9_25_11_13470
694,502.0,9_25_11_13487
695,502.0,9_25_11_13504
696,502.0,9_25_11_13521
697,503.0,9_25_11_13537
698,502.0,9_25_11_13553
699,501.0,9_25_11_13570
700,502.0,9_25_11_13587
701,502.0,9_25_11_13604
702,502.0,9_25_11_13620
703,502.0,9_25_11_13637
704,502.0,9_25_11_13653
705,502.0,9_25_11_13670
706,502.0,9_25_11_13687
707,501.0,9_25_11_13703
708,501.0,9_25_11_13720
709,501.0,9_25_11_13737
710,502.0,9_25_11_13754
711,502.0,9_25_11_13771
712,502.0,9_25_11_13787
713,502.0,9_25_11_13803
714,502.0,9_25_11_13820
715,501.0,9_25_11_13837
716,501.0,9_25_11_13854
717,501.0,9_25_11_13871
718,502.0,9_25_11_13887
719,503.0,9_25_11_13903
720,502.0,9_25_11_13920
721,502.0,9_25_11_13937
722,502.0,9_25_11_13954
723,501.0,9_25_11_13970
724,501.0,9_25_11_13987
725,501.0,9_25_11_14004
726,502.0,9_25_11_14021
727,502.0,9_25_11_14036
728,502.0,9_25_11_14053
729,502.0,9_25_12_14070
730,501.0,9_25_12_14087
731,502.0,9_25_12_14104
732,502.0,9_25_12_14120
733,502.0,9_25_12_14137
734,502.0,9_25_12_14154
735,502.0,9_25_12_14171
736,502.0,9_25_12_14187
737,501.0,9_25_12_14204
738,501.0,9_25_12_14221
739,501.0,9_25_12_14237
740,502.0,9_25_12_14253
741,502.0,9_25_12_14270
742,502.0,9_25_12_14287
743,502.0,9_25_12_14303
744,502.0,9_25_12_14320
745,501.0,9_25_12_14337
746,502.0,9_25_12_14354
747,501.0,9_25_12_14371
748,501.0,9_25_12_14387
749,502.0,9_25_12_14404
750,502.0,9_25_12_14420
751,502.0,9_25_12_14437
752,502.0,9_25_12_14454
753,502.0,9_25_12_14470
754,502.0,9_25_12_14487
755,502.0,9_25_12_14504
756,502.0,9_25_12_14521
757,502.0,9_25_12_14537
758,503.0,9_25_12_14554
759,503.0,9_25_12_14570
760,502.0,9_25_12_14587
761,501.0,9_25_12_14604
762,501.0,9_25_12_14621
763,501.0,9_25_12_14637
764,502.0,9_25_12_14654
765,502.0,9_25_12_14670
766,502.0,9_25_12_14687
767,502.0,9_25_12_14704
768,502.0,9_25_12_14720
769,501.0,9_25_12_14737
770,501.0,9_25_12_14762
771,502.0,9_25_12_14778
772,502.0,9_25_12_14794
773,503.0,9_25_12_14811
774,502.0,9_25_12_14828
775,502.0,9_25_12_14845
776,502.0,9_25_12_14862
777,501.0,9_25_12_14878
778,501.0,9_25_12_14894
779,502.0,9_25_12_14912
780,502.0,9_25_12_14928
781,502.0,9_25_12_14944
782,502.0,9_25_12_14962
783,502.0,9_25_12_14978
784,502.0,9_25_12_14994
785,501.0,9_25_12_15012
786,501.0,9_25_12_15028
787,501.0,9_25_12_15045
788,502.0,9_25_13_15061
789,502.0,9_25_13_15078
790,502.0,9_25_13_15095
791,502.0,9_25_13_15112
792,502.0,9_25_13_15128
793,501.0,9_25_13_15144
794,502.0,9_25_13_15161
795,501.0,9_25_13_15178
796,503.0,9_25_13_15195
797,503.0,9_25_13_15212
798,502.0,9_25_13_15228
799,501.0,9_25_13_15245
800,501.0,9_25_13_15262
801,501.0,9_25_13_15278
802,502.0,9_25_13_15294
803,502.0,9_25_13_15311
804,503.0,9_25_13_15328
805,502.0,9_25_13_15345
806,502.0,9_25_13_15361
807,501.0,9_25_13_15378
808,501.0,9_25_13_15395
809,501.0,9_25_13_15412
810,501.0,9_25_13_15429
811,502.0,9_25_13_15444
812,502.0,9_25_13_15461
813,502.0,9_25_13_15478
814,502.0,9_25_13_15495
815,501.0,9_25_13_15511
816,502.0,9_25_13_15528
817,501.0,9_25_13_15545
818,502.0,9_25_13_15562
819,502.0,9_25_13_15578
820,502.0,9_25_13_15594
821,502.0,9_25_13_15612
822,502.0,9_25_13_15628
823,501.0,9_25_13_15644
824,501.0,9_25_13_15661
825,502.0,9_25_13_15678
826,502.0,9_25_13_15695
827,502.0,9_25_13_15711
828,502.0,9_25_13_15728
829,501.0,9_25_13_15745
830,502.0,9_25_13_15761
831,502.0,9_25_13_15778
832,501.0,9_25_13_15795
833,501.0,9_25_13_15812
834,502.0,9_25_13_15829
835,503.0,9_25_13_15845
836,503.0,9_25_13_15861
837,502.0,9_25_13_15878
838,501.0,9_25_13_15895
839,502.0,9_25_13_15911
840,501.0,9_25_13_15928
841,501.0,9_25_13_15944
842,503.0,9_25_13_15961
843,503.0,9_25_13_15978
844,502.0,9_25_13_15996
845,501.0,9_25_13_16011
846,501.0,9_25_13_16028
847,502.0,9_25_13_16045
848,502.0,9_25_14_16061
849,503.0,9_25_14_16078
850,502.0,9_25_14_16095
851,502.0,9_25_14_16112
852,502.0,9_25_14_16128
853,501.0,9_25_14_16145
854,501.0,9_25_14_16162
855,502.0,9_25_14_16179
856,502.0,9_25_14_16194
857,503.0,9_25_14_16212
858,502.0,9_25_14_16228
859,502.0,9_25_14_16244
860,502.0,9_25_14_16261
861,502.0,9_25_14_16278
862,502.0,9_25_14_16295
863,502.0,9_25_14_16311
864,502.0,9_25_14_16328
865,502.0,9_25_14_16345
866,502.0,9_25_14_16362
867,502.0,9_25_14_16378
868,502.0,9_25_14_16395
869,502.0,9_25_14_16411
870,501.0,9_25_14_16428
871,501.0,9_25_14_16445
872,502.0,9_25_14_16462
873,503.0,9_25_14_16478
874,502.0,9_25_14_16495
875,502.0,9_25_14_16512
876,502.0,9_25_14_16529
877,501.0,9_25_14_16545
878,502.0,9_25_14_16562
879,501.0,9_25_14_16578
880,502.0,9_25_14_16594
881,502.0,9_25_14_16612
882,503.0,9_25_14_16628
883,502.0,9_25_14_16645
884,502.0,9_25_14_16661
885,501.0,9_25_14_16678
886,501.0,9_25_14_16695
887,502.0,9_25_14_16711
888,503.0,9_25_14_16728
889,503.0,9_25_14_16745
890,502.0,9_25_14_16762
891,502.0,9_25_14_16778
892,501.0,9_25_14_16795
893,502.0,9_25_14_16811
894,502.0,9_25_14_16828
895,502.0,9_25_14_16845
896,502.0,9_25_14_16862
897,502.0,9_25_14_16879
898,502.0,9_25_14_16894
899,502.0,9_25_14_16911
900,501.0,9_25_14_16932
901,501.0,9_25_14_16945
902,501.0,9_25_14_16962
903,502.0,9_25_14_16978
904,502.0,9_25_14_16995
905,502.0,9_25_14_17012
906,502.0,9_25_14_17028
907,502.0,9_25_14_17045
908,501.0,9_25_15_17061
909,501.0,9_25_15_17078
910,501.0,9_25_15_17095
911,503.0,9_25_15_17111
912,503.0,9_25_15_17128
913,502.0,9_25_15_17145
914,502.0,9_25_15_17161
915,501.0,9_25_15_17178
916,501.0,9_25_15_17194
917,502.0,9_25_15_17212
918,502.0,9_25_15_17229
919,503.0,9_25_15_17245
920,502.0,9_25_15_17261
921,502.0,9_25_15_17278
922,502.0,9_25_15_17295
923,501.0,9_25_15_17312
924,501.0,9_25_15_17328
925,502.0,9_25_15_17345
926,502.0,9_25_15_17361
927,503.0,9_25_15_17378
928,502.0,9_25_15_17395
929,502.0,9_25_15_17412
930,501.0,9_25_15_17428
931,501.0,9_25_15_17445
932,502.0,9_25_15_17461
933,502.0,9_25_15_17478
934,503.0,9_25_15_17495
935,503.0,9_25_15_17511
936,502.0,9_25_15_17528
937,502.0,9_25_15_17545
938,501.0,9_25_15_17562
939,501.0,9_25_15_17578
940,501.0,9_25_15_17595
941,502.0,9_25_15_17611
942,502.0,9_25_15_17628
943,502.0,9_25_15_17645
944,502.0,9_25_15_17662
945,502.0,9_25_15_17678
946,501.0,9_25_15_17695
947,501.0,9_25_15_17712
948,501.0,9_25_15_17728
949,502.0,9_25_15_17745
950,502.0,9_25_15_17761
951,503.0,9_25_15_17778
952,502.0,9_25_15_17795
953,502.0,9_25_15_17812
954,501.0,9_25_15_17828
955,502.0,9_25_15_17845
956,502.0,9_25_15_17862
957,502.0,9_25_15_17878
958,502.0,9_25_15_17895
959,503.0,9_25_15_17911
960,502.0,9_25_15_17928
961,501.0,9_25_15_17945
962,501.0,9_25_15_17961
963,502.0,9_25_15_17978
964,502.0,9_25_15_17995
965,502.0,9_25_15_18011
966,502.0,9_25_15_18028
967,502.0,9_25_15_18045
968,502.0,9_25_16_18062
969,501.0,9_25_16_18078
970,502.0,9_25_16_18095
971,501.0,9_25_16_18111
972,502.0,9_25_16_18128
973,502.0,9_25_16_18145
974,503.0,9_25_16_18161
975,502.0,9_25_16_18178
976,502.0,9_25_16_18195
977,501.0,9_25_16_18212
978,502.0,9_25_16_18228
979,502.0,9_25_16_18245
980,502.0,9_25_16_18262
981,503.0,9_25_16_18278
982,503.0,9_25_16_18295
983,502.0,9_25_16_18311
984,502.0,9_25_16_18328
985,502.0,9_25_16_18345
986,502.0,9_25_16_18361
987,501.0,9_25_16_18378
988,503.0,9_25_16_18395
989,503.0,9_25_16_18411
990,503.0,9_25_16_18429
991,502.0,9_25_16_18445
992,501.0,9_25_16_18461
993,501.0,9_25_16_18479
994,501.0,9_25_16_18495
995,502.0,9_25_16_18512
996,502.0,9_25_16_18528
997,502.0,9_25_16_18545
998,502.0,9_25_16_18562
999,501.0,9_25_16_18579
1000,502.0,9_25_16_18594
1001,501.0,9_25_16_18611
1002,502.0,9_25_16_18628
1003,502.0,9_25_16_18645
1004,503.0,9_25_16_18661
1005,502.0,9_25_16_18678
1006,502.0,9_25_16_18695
1007,501.0,9_25_16_18711
1008,501.0,9_25_16_18728
1009,502.0,9_25_16_18745
1010,501.0,9_25_16_18762
1011,502.0,9_25_16_18778
1012,502.0,9_25_16_18795
1013,502.0,9_25_16_18812
1014,502.0,9_25_16_18828
1015,501.0,9_25_16_18845
1016,501.0,9_25_16_18862
1017,502.0,9_25_16_18878
1018,502.0,9_25_16_18895
1019,503.0,9_25_16_18912
1020,502.0,9_25_16_18928
1021,503.0,9_25_16_18945
1022,502.0,9_25_16_18962
1023,501.0,9_25_16_18978
1024,501.0,9_25_16_18994
1025,501.0,9_25_16_19012
1026,502.0,9_25_16_19028
1027,502.0,9_25_16_19045
1028,502.0,9_25_17_19062
1029,502.0,9_25_17_19078
1030,501.0,9_25_17_19095
1031,501.0,9_25_17_19112
1032,502.0,9_25_17_19128
1033,502.0,9_25_17_19145
1034,503.0,9_25_17_19162
1035,503.0,9_25_17_19178
1036,503.0,9_25_17_19195
1037,502.0,9_25_17_19211
1038,501.0,9_25_17_19228
1039,501.0,9_25_17_19245
1040,502.0,9_25_17_19262
1041,502.0,9_25_17_19278
1042,502.0,9_25_17_19295
1043,503.0,9_25_17_19311
1044,502.0,9_25_17_19329
1045,502.0,9_25_17_19345
1046,502.0,9_25_17_19362
1047,502.0,9_25_17_19378
1048,502.0,9_25_17_19395
1049,502.0,9_25_17_19411
1050,502.0,9_25_17_19429
1051,502.0,9_25_17_19445
1052,501.0,9_25_17_19461
1053,501.0,9_25_17_19478
1054,502.0,9_25_17_19495
1055,501.0,9_25_17_19511
1056,502.0,9_25_17_19528
1057,502.0,9_25_17_19545
1058,503.0,9_25_17_19562
1059,502.0,9_25_17_19578
1060,502.0,9_25_17_19595
1061,501.0,9_25_17_19612
1062,501.0,9_25_17_19628
1063,501.0,9_25_17_19645
1064,502.0,9_25_17_19662
1065,502.0,9_25_17_19678
1066,503.0,9_25_17_19695
1067,503.0,9_25_17_19712
1068,502.0,9_25_17_19728
1069,501.0,9_25_17_19745
1070,502.0,9_25_17_19763
1071,502.0,9_25_17_19780
1072,502.0,9_25_17_19796
1073,502.0,9_25_17_19812
1074,502.0,9_25_17_19829
1075,502.0,9_25_17_19846
1076,501.0,9_25_17_19862
1077,501.0,9_25_17_19879
1078,501.0,9_25_17_19896
1079,502.0,9_25_17_19913
1080,502.0,9_25_17_19929
1081,502.0,9_25_17_19946
1082,502.0,9_25_17_19963
1083,502.0,9_25_17_19979
1084,501.0,9_25_17_19996
1085,502.0,9_25_17_20013
1086,501.0,9_25_17_20029
1087,502.0,9_25_17_20046
1088,502.0,9_25_18_20062
1089,502.0,9_25_18_20079
1090,502.0,9_25_18_20096
1091,502.0,9_25_18_20112
1092,501.0,9_25_18_20129
1093,502.0,9_25_18_20146
1094,502.0,9_25_18_20162
1095,502.0,9_25_18_20180
1096,503.0,9_25_18_20196
1097,502.0,9_25_18_20212
1098,502.0,9_25_18_20229
1099,502.0,9_25_18_20245
1100,502.0,9_25_18_20262
1101,501.0,9_25_18_20280
1102,501.0,9_25_18_20296
1103,502.0,9_25_18_20312
1104,502.0,9_25_18_20329
1105,502.0,9_25_18_20346
1106,502.0,9_25_18_20362
1107,501.0,9_25_18_20379
1108,501.0,9_25_18_20396
1109,502.0,9_25_18_20413
1110,502.0,9_25_18_20429
1111,502.0,9_25_18_20446
1112,502.0,9_25_18_20462
1113,502.0,9_25_18_20479
1114,501.0,9_25_18_20496
1115,501.0,9_25_18_20513
1116,501.0,9_25_18_20529
1117,502.0,9_25_18_20546
1118,502.0,9_25_18_20562
1119,503.0,9_25_18_20579
1120,502.0,9_25_18_20596
1121,502.0,9_25_18_20612
1122,502.0,9_25_18_20630
1123,501.0,9_25_18_20646
1124,501.0,9_25_18_20663
1125,501.0,9_25_18_20679
1126,502.0,9_25_18_20696
1127,503.0,9_25_18_20712
1128,502.0,9_25_18_20729
1129,502.0,9_25_18_20747
1130,502.0,9_25_18_20763
1131,501.0,9_25_18_20780
1132,501.0,9_25_18_20796
1133,502.0,9_25_18_20813
1134,502.0,9_25_18_20830
1135,502.0,9_25_18_20846
1136,502.0,9_25_18_20862
1137,501.0,9_25_18_20880
1138,501.0,9_25_18_20896
1139,501.0,9_25_18_20913
1140,501.0,9_25_18_20930
1141,502.0,9_25_18_20946
1142,502.0,9_25_18_20963
1143,502.0,9_25_18_20979
1144,503.0,9_25_18_20996
1145,502.0,9_25_18_21012
1146,502.0,9_25_18_21030
1147,501.0,9_25_18_21046
1148,502.0,9_25_19_21063
1149,502.0,9_25_19_21079
1150,502.0,9_25_19_21096
1151,502.0,9_25_19_21113
1152,502.0,9_25_19_21129
1153,501.0,9_25_19_21146
1154,501.0,9_25_19_21162
1155,501.0,9_25_19_21179
1156,502.0,9_25_19_21196
1157,502.0,9_25_19_21213
1158,502.0,9_25_19_21229
1159,502.0,9_25_19_21246
1160,502.0,9_25_19_21263
1161,501.0,9_25_19_21280
1162,501.0,9_25_19_21296
1163,502.0,9_25_19_21312
1164,502.0,9_25_19_21329
1165,502.0,9_25_19_21346
1166,503.0,9_25_19_21363
1167,502.0,9_25_19_21379
1168,501.0,9_25_19_21396
1169,501.0,9_25_19_21412
1170,501.0,9_25_19_21430
1171,502.0,9_25_19_21446
1172,502.0,9_25_19_21463
1173,503.0,9_25_19_21479
1174,502.0,9_25_19_21496
1175,501.0,9_25_19_21512
1176,501.0,9_25_19_21530
1177,502.0,9_25_19_21546
1178,502.0,9_25_19_21562
1179,502.0,9_25_19_21580
1180,502.0,9_25_19_21596
1181,502.0,9_25_19_21613
1182,502.0,9_25_19_21630
1183,502.0,9_25_19_21646
1184,502.0,9_25_19_21662
1185,501.0,9_25_19_21680
1186,502.0,9_25_19_21696
1187,502.0,9_25_19_21713
1188,502.0,9_25_19_21730
1189,502.0,9_25_19_21746
1190,503.0,9_25_19_21763
1191,501.0,9_25_19_21780
1192,502.0,9_25_19_21796
1193,501.0,9_25_19_21813
1194,501.0,9_25_19_21830
1195,502.0,9_25_19_21846
1196,503.0,9_25_19_21862
1197,502.0,9_25_19_21880
1198,502.0,9_25_19_21896
1199,502.0,9_25_19_21913
1200,501.0,9_25_19_21929
1201,501.0,9_25_19_21946
1202,502.0,9_25_19_21963
1203,502.0,9_25_19_21979
1204,502.0,9_25_19_21996
1205,502.0,9_25_19_22012
1206,501.0,9_25_19_22030
1207,501.0,9_25_19_22046
1208,501.0,9_25_20_22063
1209,501.0,9_25_20_22079
1210,502.0,9_25_20_22096
1211,502.0,9_25_20_22112
1212,502.0,9_25_20_22130
1213,502.0,9_25_20_22146
1214,501.0,9_25_20_22163
1215,501.0,9_25_20_22179
1216,501.0,9_25_20_22196
1217,502.0,9_25_20_22213
1218,503.0,9_25_20_22230
1219,502.0,9_25_20_22246
1220,503.0,9_25_20_22262
1221,502.0,9_25_20_22279
1222,501.0,9_25_20_22297
1223,502.0,9_25_20_22313
1224,502.0,9_25_20_22330
1225,501.0,9_25_20_22346
1226,502.0,9_25_20_22363
1227,502.0,9_25_20_22380
1228,502.0,9_25_20_22396
1229,502.0,9_25_20_22412
1230,501.0,9_25_20_22430
1231,501.0,9_25_20_22446
1232,502.0,9_25_20_22463
1233,502.0,9_25_20_22479
1234,502.0,9_25_20_22496
1235,503.0,9_25_20_22513
1236,502.0,9_25_20_22529
1237,502.0,9_25_20_22546
1238,501.0,9_25_20_22562
1239,501.0,9_25_20_22580
1240,502.0,9_25_20_22596
1241,502.0,9_25_20_22613
1242,503.0,9_25_20_22630
1243,502.0,9_25_20_22646
1244,502.0,9_25_20_22663
1245,501.0,9_25_20_22679
1246,501.0,9_25_20_22696
1247,502.0,9_25_20_22712
1248,501.0,9_25_20_22730
1249,502.0,9_25_20_22746
1250,502.0,9_25_20_22763
1251,502.0,9_25_20_22779
1252,502.0,9_25_20_22796
1253,501.0,9_25_20_22812
1254,501.0,9_25_20_22829
1255,502.0,9_25_20_22846
1256,502.0,9_25_20_22863
1257,502.0,9_25_20_22879
1258,502.0,9_25_20_22896
1259,503.0,9_25_20_22913
1260,502.0,9_25_20_22929
1261,501.0,9_25_20_22946
1262,501.0,9_25_20_22963
1263,502.0,9_25_20_22979
1264,502.0,9_25_20_22996
1265,503.0,9_25_20_23013
1266,502.0,9_25_20_23029
1267,502.0,9_25_20_23046
1268,502.0,9_25_21_23062
1269,502.0,9_25_21_23079
1270,501.0,9_25_21_23096
1271,502.0,9_25_21_23112
1272,502.0,9_25_21_23130
1273,503.0,9_25_21_23146
1274,502.0,9_25_21_23163
1275,502.0,9_25_21_23179
1276,501.0,9_25_21_23196
1277,501.0,9_25_21_23213
1278,501.0,9_25_21_23230
1279,502.0,9_25_21_23246
1280,502.0,9_25_21_23263
1281,503.0,9_25_21_23279
1282,502.0,9_25_21_23296
1283,501.0,9_25_21_23313
1284,501.0,9_25_21_23329
1285,501.0,9_25_21_23346
1286,501.0,9_25_21_23363
1287,502.0,9_25_21_23379
1288,502.0,9_25_21_23396
1289,502.0,9_25_21_23413
1290,502.0,9_25_21_23430
1291,501.0,9_25_21_23446
1292,501.0,9_25_21_23463
1293,502.0,9_25_21_23479
1294,502.0,9_25_21_23496
1295,502.0,9_25_21_23513
1296,502.0,9_25_21_23530
1297,502.0,9_25_21_23546
1298,502.0,9_25_21_23562
1299,502.0,9_25_21_23580
1300,501.0,9_25_21_23596
1301,501.0,9_25_21_23613
1302,502.0,9_25_21_23629
1303,502.0,9_25_21_23646
1304,503.0,9_25_21_23663
1305,502.0,9_25_21_23680
1306,502.0,9_25_21_23696
1307,502.0,9_25_21_23713
1308,502.0,9_25_21_23730
1309,502.0,9_25_21_23747
1310,502.0,9_25_21_23763
1311,503.0,9_25_21_23779
1312,502.0,9_25_21_23796
1313,502.0,9_25_21_23813
1314,502.0,9_25_21_23830
1315,501.0,9_25_21_23847
1316,501.0,9_25_21_23863
1317,502.0,9_25_21_23880
1318,502.0,9_25_21_23896
1319,502.0,9_25_21_23913
1320,502.0,9_25_21_23930
1321,502.0,9_25_21_23947
1322,501.0,9_25_21_23963
1323,501.0,9_25_21_23980
1324,501.0,9_25_21_23996
1325,502.0,9_25_21_24013
1326,502.0,9_25_21_24029
1327,503.0,9_25_21_24047
1328,502.0,9_25_22_24063
1329,502.0,9_25_22_24080
1330,502.0,9_25_22_24096
1331,501.0,9_25_22_24113
1332,502.0,9_25_22_24129
1333,502.0,9_25_22_24146
1334,502.0,9_25_22_24163
1335,502.0,9_25_22_24179
1336,502.0,9_25_22_24197
1337,501.0,9_25_22_24213
1338,501.0,9_25_22_24230
1339,502.0,9_25_22_24247
1340,502.0,9_25_22_24263
1341,502.0,9_25_22_24280
1342,503.0,9_25_22_24296
1343,503.0,9_25_22_24313
1344,502.0,9_25_22_24330
1345,501.0,9_25_22_24346
1346,501.0,9_25_22_24363
1347,501.0,9_25_22_24379
1348,502.0,9_25_22_24396
1349,502.0,9_25_22_24413
1350,502.0,9_25_22_24430
1351,502.0,9_25_22_24446
1352,502.0,9_25_22_24462
1353,502.0,9_25_22_24480
1354,501.0,9_25_22_24496
1355,501.0,9_25_22_24513
1356,502.0,9_25_22_24529
1357,502.0,9_25_22_24546
1358,503.0,9_25_22_24563
1359,503.0,9_25_22_24579
1360,501.0,9_25_22_24596
1361,502.0,9_25_22_24612
1362,501.0,9_25_22_24630
1363,502.0,9_25_22_24646
1364,502.0,9_25_22_24662
1365,503.0,9_25_22_24680
1366,502.0,9_25_22_24696
1367,502.0,9_25_22_24713
1368,501.0,9_25_22_24730
1369,501.0,9_25_22_24746
1370,502.0,9_25_22_24768
1371,502.0,9_25_22_24784
1372,502.0,9_25_22_24801
1373,502.0,9_25_22_24818
1374,502.0,9_25_22_24835
1375,502.0,9_25_22_24851
1376,501.0,9_25_22_24868
1377,502.0,9_25_22_24885
1378,502.0,9_25_22_24901
1379,502.0,9_25_22_24918
1380,502.0,9_25_22_24935
1381,502.0,9_25_22_24951
1382,502.0,9_25_22_24968
1383,501.0,9_25_22_24985
1384,501.0,9_25_22_25001
1385,502.0,9_25_22_25018
1386,501.0,9_25_22_25035
1387,502.0,9_25_22_25051
1388,503.0,9_25_23_25068
1389,502.0,9_25_23_25085
1390,503.0,9_25_23_25102
1391,501.0,9_25_23_25118
1392,501.0,9_25_23_25134
1393,501.0,9_25_23_25152
1394,501.0,9_25_23_25168
1395,502.0,9_25_23_25185
1396,503.0,9_25_23_25201
1397,503.0,9_25_23_25219
1398,502.0,9_25_23_25235
1399,502.0,9_25_23_25251
1400,501.0,9_25_23_25268
1401,502.0,9_25_23_25284
1402,502.0,9_25_23_25302
1403,503.0,9_25_23_25318
1404,503.0,9_25_23_25335
1405,502.0,9_25_23_25351
1406,502.0,9_25_23_25368
1407,502.0,9_25_23_25384
1408,501.0,9_25_23_25402
1409,502.0,9_25_23_25418
1410,502.0,9_25_23_25434
1411,502.0,9_25_23_25451
1412,503.0,9_25_23_25468
1413,503.0,9_25_23_25485
1414,501.0,9_25_23_25501
1415,501.0,9_25_23_25518
1416,502.0,9_25_23_25535
1417,502.0,9_25_23_25551
1418,502.0,9_25_23_25568
1419,503.0,9_25_23_25585
1420,503.0,9_25_23_25601
1421,502.0,9_25_23_25618
1422,502.0,9_25_23_25634
1423,502.0,9_25_23_25652
1424,501.0,9_25_23_25668
1425,501.0,9_25_23_25685
1426,503.0,9_25_23_25701
1427,503.0,9_25_23_25718
1428,502.0,9_25_23_25735
1429,502.0,9_25_23_25752
1430,502.0,9_25_23_25768
1431,501.0,9_25_23_25785
1432,501.0,9_25_23_25801
1433,502.0,9_25_23_25818
1434,502.0,9_25_23_25835
1435,502.0,9_25_23_25851
1436,502.0,9_25_23_25868
1437,501.0,9_25_23_25885
1438,501.0,9_25_23_25901
1439,501.0,9_25_23_25919
1440,502.0,9_25_23_25935
1441,502.0,9_25_23_25952
1442,503.0,9_25_23_25968
1443,503.0,9_25_23_25985
1444,502.0,9_25_23_26002
1445,501.0,9_25_23_26018
1446,501.0,9_25_23_26034
1447,501.0,9_25_23_26052
1448,501.0,9_25_24_26068
1449,502.0,9_25_24_26085
1450,502.0,9_25_24_26101
1451,502.0,9_25_24_26118
1452,502.0,9_25_24_26135
1453,502.0,9_25_24_26151
1454,501.0,9_25_24_26168
1455,502.0,9_25_24_26185
1456,502.0,9_25_24_26201
1457,502.0,9_25_24_26218
1458,502.0,9_25_24_26235
1459,502.0,9_25_24_26251
1460,502.0,9_25_24_26268
1461,501.0,9_25_24_26284
1462,501.0,9_25_24_26302
1463,502.0,9_25_24_26318
1464,502.0,9_25_24_26335
1465,502.0,9_25_24_26351
1466,502.0,9_25_24_26368
1467,502.0,9_25_24_26384
1468,502.0,9_25_24_26402
1469,501.0,9_25_24_26418
1470,501.0,9_25_24_26435
1471,502.0,9_25_24_26451
1472,503.0,9_25_24_26468
1473,502.0,9_25_24_26485
1474,502.0,9_25_24_26502
1475,502.0,9_25_24_26518
1476,501.0,9_25_24_26534
1477,501.0,9_25_24_26552
1478,501.0,9_25_24_26568
1479,502.0,9_25_24_26585
1480,503.0,9_25_24_26601
1481,502.0,9_25_24_26618
1482,502.0,9_25_24_26634
1483,501.0,9_25_24_26651
1484,502.0,9_25_24_26668
1485,501.0,9_25_24_26685
1486,502.0,9_25_24_26701
1487,502.0,9_25_24_26718
1488,502.0,9_25_24_26734
1489,502.0,9_25_24_26751
1490,502.0,9_25_24_26768
1491,502.0,9_25_24_26785
1492,501.0,9_25_24_26801
1493,501.0,9_25_24_26818
1494,502.0,9_25_24_26835
1495,502.0,9_25_24_26851
1496,502.0,9_25_24_26868
1497,502.0,9_25_24_26885
1498,502.0,9_25_24_26902
1499,502.0,9_25_24_26918
1500,501.0,9_25_24_26935
1501,501.0,9_25_24_26952
1502,502.0,9_25_24_26968
1503,503.0,9_25_24_26985
1504,502.0,9_25_24_27001
1505,502.0,9_25_24_27018
1506,502.0,9_25_24_27035
1507,501.0,9_25_24_27051
1508,501.0,9_25_25_27068
1509,502.0,9_25_25_27084
1510,502.0,9_25_25_27102
1511,502.0,9_25_25_27118
1512,502.0,9_25_25_27135
1513,502.0,9_25_25_27152
1514,501.0,9_25_25_27168
1515,501.0,9_25_25_27184
1516,501.0,9_25_25_27202
1517,501.0,9_25_25_27218
1518,502.0,9_25_25_27234
1519,502.0,9_25_25_27252
1520,502.0,9_25_25_27268
1521,502.0,9_25_25_27285
1522,501.0,9_25_25_27301
1523,501.0,9_25_25_27318
1524,501.0,9_25_25_27335
1525,502.0,9_25_25_27351
1526,502.0,9_25_25_27368
1527,503.0,9_25_25_27385
1528,502.0,9_25_25_27402
1529,502.0,9_25_25_27418
1530,501.0,9_25_25_27434
1531,502.0,9_25_25_27452
1532,501.0,9_25_25_27468
1533,502.0,9_25_25_27485
1534,503.0,9_25_25_27502
1535,503.0,9_25_25_27518
1536,502.0,9_25_25_27535
1537,501.0,9_25_25_27552
1538,501.0,9_25_25_27568
1539,501.0,9_25_25_27584
1540,501.0,9_25_25_27602
1541,502.0,9_25_25_27618
1542,502.0,9_25_25_27635
1543,502.0,9_25_25_27652
1544,502.0,9_25_25_27668
1545,502.0,9_25_25_27684
1546,501.0,9_25_25_27702
1547,502.0,9_25_25_27718
1548,502.0,9_25_25_27735
1549,503.0,9_25_25_27752
1550,502.0,9_25_25_27768
1551,502.0,9_25_25_27785
1552,501.0,9_25_25_27801
1553,501.0,9_25_25_27818
1554,502.0,9_25_25_27834
1555,502.0,9_25_25_27852
1556,502.0,9_25_25_27868
1557,502.0,9_25_25_27884
1558,502.0,9_25_25_27902
1559,502.0,9_25_25_27918
1560,502.0,9_25_25_27935
1561,501.0,9_25_25_27951
1562,501.0,9_25_25_27968
1563,501.0,9_25_25_27985
1564,503.0,9_25_25_28001
1565,502.0,9_25_25_28019
1566,503.0,9_25_25_28035
1567,502.0,9_25_25_28051
1568,501.0,9_25_26_28069
1569,501.0,9_25_26_28085
1570,502.0,9_25_26_28102
1571,501.0,9_25_26_28119
1572,502.0,9_25_26_28135
1573,502.0,9_25_26_28152
1574,502.0,9_25_26_28168
1575,502.0,9_25_26_28185
1576,501.0,9_25_26_28202
1577,501.0,9_25_26_28218
1578,501.0,9_25_26_28235
1579,502.0,9_25_26_28251
1580,503.0,9_25_26_28268
1581,502.0,9_25_26_28285
1582,502.0,9_25_26_28301
1583,502.0,9_25_26_28318
1584,501.0,9_25_26_28335
1585,501.0,9_25_26_28352
1586,502.0,9_25_26_28368
1587,502.0,9_25_26_28385
1588,502.0,9_25_26_28401
1589,502.0,9_25_26_28418
1590,502.0,9_25_26_28435
1591,501.0,9_25_26_28451
1592,501.0,9_25_26_28469
1593,502.0,9_25_26_28485
1594,502.0,9_25_26_28501
1595,502.0,9_25_26_28519
1596,503.0,9_25_26_28535
1597,502.0,9_25_26_28551
1598,502.0,9_25_26_28569
1599,501.0,9_25_26_28585
1600,501.0,9_25_26_28601
1601,502.0,9_25_26_28619
1602,502.0,9_25_26_28635
1603,502.0,9_25_26_28651
1604,502.0,9_25_26_28669
1605,502.0,9_25_26_28685
1606,502.0,9_25_26_28701
1607,501.0,9_25_26_28719
1608,501.0,9_25_26_28735
1609,501.0,9_25_26_28752
1610,501.0,9_25_26_28768
1611,502.0,9_25_26_28785
1612,502.0,9_25_26_28801
1613,502.0,9_25_26_28818
1614,502.0,9_25_26_28834
1615,502.0,9_25_26_28852
1616,501.0,9_25_26_28868
1617,502.0,9_25_26_28884
1618,502.0,9_25_26_28902
1619,502.0,9_25_26_28918
1620,502.0,9_25_26_28935
1621,502.0,9_25_26_28951
1622,501.0,9_25_26_28969
1623,502.0,9_25_26_28985
1624,501.0,9_25_26_29001
1625,502.0,9_25_26_29018
1626,503.0,9_25_26_29035
1627,502.0,9_25_26_29052
1628,503.0,9_25_27_29068
1629,501.0,9_25_27_29085
1630,501.0,9_25_27_29102
1631,501.0,9_25_27_29118
1632,502.0,9_25_27_29135
1633,502.0,9_25_27_29152
1634,502.0,9_25_27_29169
1635,503.0,9_25_27_29185
1636,502.0,9_25_27_29202
1637,502.0,9_25_27_29218
1638,501.0,9_25_27_29235
1639,501.0,9_25_27_29252
1640,502.0,9_25_27_29269
1641,502.0,9_25_27_29285
1642,502.0,9_25_27_29302
1643,503.0,9_25_27_29319
1644,502.0,9_25_27_29335
1645,501.0,9_25_27_29352
1646,501.0,9_25_27_29368
1647,501.0,9_25_27_29384
1648,502.0,9_25_27_29402
1649,502.0,9_25_27_29418
1650,502.0,9_25_27_29435
1651,502.0,9_25_27_29452
1652,502.0,9_25_27_29468
1653,501.0,9_25_27_29485
1654,501.0,9_25_27_29501
1655,501.0,9_25_27_29518
1656,502.0,9_25_27_29535
1657,502.0,9_25_27_29551
1658,502.0,9_25_27_29568
1659,502.0,9_25_27_29585
1660,502.0,9_25_27_29602
1661,501.0,9_25_27_29618
1662,501.0,9_25_27_29635
1663,501.0,9_25_27_29651
1664,502.0,9_25_27_29669
1665,502.0,9_25_27_29685
1666,503.0,9_25_27_29702
1667,502.0,9_25_27_29719
1668,501.0,9_25_27_29735
1669,501.0,9_25_27_29752
1670,502.0,9_25_27_29783
1671,501.0,9_25_27_29800
1672,503.0,9_25_27_29816
1673,503.0,9_25_27_29833
1674,502.0,9_25_27_29849
1675,502.0,9_25_27_29866
1676,501.0,9_25_27_29883
1677,502.0,9_25_27_29900
1678,502.0,9_25_27_29916
1679,502.0,9_25_27_29932
1680,502.0,9_25_27_29950
1681,502.0,9_25_27_29966
1682,503.0,9_25_27_29983
1683,502.0,9_25_27_30000
1684,501.0,9_25_27_30017
1685,502.0,9_25_27_30033
1686,501.0,9_25_27_30049
1687,502.0,9_25_28_30067
1688,502.0,9_25_28_30083
1689,502.0,9_25_28_30099
1690,502.0,9_25_28_30116
1691,502.0,9_25_28_30133
1692,501.0,9_25_28_30150
1693,501.0,9_25_28_30166
1694,502.0,9_25_28_30183
1695,503.0,9_25_28_30200
1696,502.0,9_25_28_30216
1697,503.0,9_25_28_30233
1698,502.0,9_25_28_30250
1699,501.0,9_25_28_30266
1700,501.0,9_25_28_30283
1701,501.0,9_25_28_30300
1702,502.0,9_25_28_30317
1703,503.0,9_25_28_30333
1704,502.0,9_25_28_30513
1705,502.0,9_25_28_30562
1706,502.0,9_25_28_30578
1707,501.0,9_25_28_30595
1708,501.0,9_25_28_30612
1709,502.0,9_25_28_30628
1710,502.0,9_25_28_30645
1711,502.0,9_25_28_30661
1712,502.0,9_25_28_30678
1713,502.0,9_25_28_30695
1714,501.0,9_25_28_30712
1715,501.0,9_25_28_30729
1716,502.0,9_25_28_30745
1717,502.0,9_25_28_30762
1718,502.0,9_25_28_30778
1719,502.0,9_25_28_30795
1720,502.0,9_25_28_30812
1721,502.0,9_25_28_30828
1722,501.0,9_25_28_30845
1723,501.0,9_25_28_30861
1724,501.0,9_25_28_30879
1725,501.0,9_25_28_30895
1726,502.0,9_25_28_30912
1727,502.0,9_25_28_30928
1728,502.0,9_25_28_30945
1729,501.0,9_25_28_30961
1730,501.0,9_25_28_30978
1731,501.0,9_25_28_30995
1732,502.0,9_25_28_31011
1733,502.0,9_25_28_31028
1734,503.0,9_25_28_31045
1735,502.0,9_25_29_31061
1736,502.0,9_25_29_31078
1737,501.0,9_25_29_31095
1738,501.0,9_25_29_31111
1739,501.0,9_25_29_31128
1740,501.0,9_25_29_31145
1741,502.0,9_25_29_31161
1742,502.0,9_25_29_31178
1743,502.0,9_25_29_31195
1744,502.0,9_25_29_31212
1745,501.0,9_25_29_31228
1746,502.0,9_25_29_31245
1747,501.0,9_25_29_31262
1748,502.0,9_25_29_31279
1749,502.0,9_25_29_31295
1750,502.0,9_25_29_31311
1751,502.0,9_25_29_31328
1752,502.0,9_25_29_31345
1753,501.0,9_25_29_31362
1754,502.0,9_25_29_31378
1755,502.0,9_25_29_31395
1756,502.0,9_25_29_31412
1757,502.0,9_25_29_31429
1758,502.0,9_25_29_31445
1759,502.0,9_25_29_31462
1760,502.0,9_25_29_31478
1761,502.0,9_25_29_31495
1762,501.0,9_25_29_31511
1763,501.0,9_25_29_31528
1764,502.0,9_25_29_31545
1765,502.0,9_25_29_31562
1766,502.0,9_25_29_31579
1767,501.0,9_25_29_31595
1768,502.0,9_25_29_31612
1769,502.0,9_25_29_31628
1770,502.0,9_25_29_31645
1771,502.0,9_25_29_31662
1772,502.0,9_25_29_31678
1773,502.0,9_25_29_31695
1774,503.0,9_25_29_31711
1775,502.0,9_25_29_31728
1776,501.0,9_25_29_31745
1777,501.0,9_25_29_31761
1778,502.0,9_25_29_31778
1779,501.0,9_25_29_31795
1780,502.0,9_25_29_31812
1781,502.0,9_25_29_31829
1782,503.0,9_25_29_31845
1783,501.0,9_25_29_31862
1784,501.0,9_25_29_31878
1785,502.0,9_25_29_31895
1786,502.0,9_25_29_31911
1787,502.0,9_25_29_31929
1788,503.0,9_25_29_31945
1789,502.0,9_25_29_31961
1790,502.0,9_25_29_31979
1791,501.0,9_25_29_31995
1792,502.0,9_25_29_32012
1793,502.0,9_25_29_32028
1794,502.0,9_25_29_32045
1795,502.0,9_25_30_32062
1796,502.0,9_25_30_32078
1797,502.0,9_25_30_32095
1798,502.0,9_25_30_32111
1799,501.0,9_25_30_32129
1800,502.0,9_25_30_32145
1801,502.0,9_25_30_32165
1802,501.0,9_25_30_32178
1803,502.0,9_25_30_32195
1804,502.0,9_25_30_32212
1805,502.0,9_25_30_32228
1806,502.0,9_25_30_32245
1807,502.0,9_25_30_32262
1808,502.0,9_25_30_32278
1809,501.0,9_25_30_32295
1810,502.0,9_25_30_32311
1811,502.0,9_25_30_32329
1812,502.0,9_25_30_32345
1813,502.0,9_25_30_32362
1814,502.0,9_25_30_32379
1815,501.0,9_25_30_32395
1816,501.0,9_25_30_32412
1817,502.0,9_25_30_32429
1818,502.0,9_25_30_32445
1819,502.0,9_25_30_32461
1820,502.0,9_25_30_32478
1821,501.0,9_25_30_32495
1822,501.0,9_25_30_32511
1823,501.0,9_25_30_32529
1824,502.0,9_25_30_32545
1825,502.0,9_25_30_32561
1826,503.0,9_25_30_32578
1827,503.0,9_25_30_32595
1828,502.0,9_25_30_32611
1829,502.0,9_25_30_32628
1830,501.0,9_25_30_32645
1831,501.0,9_25_30_32662
1832,501.0,9_25_30_32678
1833,502.0,9_25_30_32695
1834,502.0,9_25_30_32712
1835,502.0,9_25_30_32728
1836,502.0,9_25_30_32745
1837,502.0,9_25_30_32762
1838,501.0,9_25_30_32778
1839,502.0,9_25_30_32795
1840,502.0,9_25_30_32812
1841,502.0,9_25_30_32828
1842,502.0,9_25_30_32845
1843,503.0,9_25_30_32862
1844,502.0,9_25_30_32878
1845,502.0,9_25_30_32895
1846,501.0,9_25_30_32911
1847,502.0,9_25_30_32928
1848,502.0,9_25_30_32945
1849,502.0,9_25_30_32962
1850,502.0,9_25_30_32979
1851,502.0,9_25_30_32995
1852,502.0,9_25_30_33012
1853,501.0,9_25_30_33028
1854,502.0,9_25_30_33045
1855,502.0,9_25_31_33062
1856,502.0,9_25_31_33078
1857,503.0,9_25_31_33095
1858,503.0,9_25_31_33111
1859,502.0,9_25_31_33128
1860,501.0,9_25_31_33145
1861,502.0,9_25_31_33162
1862,501.0,9_25_31_33178
1863,502.0,9_25_31_33195
1864,502.0,9_25_31_33211
1865,503.0,9_25_31_33228
1866,502.0,9_25_31_33245
1867,502.0,9_25_31_33262
1868,501.0,9_25_31_33278
1869,501.0,9_25_31_33295
1870,501.0,9_25_31_33312
1871,501.0,9_25_31_33328
1872,502.0,9_25_31_33345
1873,502.0,9_25_31_33362
1874,502.0,9_25_31_33379
1875,502.0,9_25_31_33395
1876,501.0,9_25_31_33411
1877,501.0,9_25_31_33428
1878,501.0,9_25_31_33446
1879,502.0,9_25_31_33462
1880,502.0,9_25_31_33479
1881,503.0,9_25_31_33495
1882,502.0,9_25_31_33512
1883,501.0,9_25_31_33529
1884,501.0,9_25_31_33545
1885,501.0,9_25_31_33562
1886,502.0,9_25_31_33578
1887,502.0,9_25_31_33595
1888,502.0,9_25_31_33612
1889,502.0,9_25_31_33628
1890,502.0,9_25_31_33645
1891,502.0,9_25_31_33661
1892,501.0,9_25_31_33678
1893,501.0,9_25_31_33696
1894,502.0,9_25_31_33712
1895,503.0,9_25_31_33729
1896,502.0,9_25_31_33745
1897,502.0,9_25_31_33762
1898,501.0,9_25_31_33778
1899,501.0,9_25_31_33795
1900,501.0,9_25_31_33811
1901,502.0,9_25_31_33829
1902,502.0,9_25_31_33845
1903,503.0,9_25_31_33862
1904,503.0,9_25_31_33878
1905,503.0,9_25_31_33895
1906,502.0,9_25_31_33912
1907,501.0,9_25_31_33929
1908,501.0,9_25_31_33945
1909,501.0,9_25_31_33962
1910,502.0,9_25_31_33979
1911,502.0,9_25_31_33995
1912,502.0,9_25_31_34012
1913,502.0,9_25_31_34028
1914,502.0,9_25_31_34045
1915,501.0,9_25_32_34062
1916,502.0,9_25_32_34078
1917,502.0,9_25_32_34095
1918,503.0,9_25_32_34111
1919,502.0,9_25_32_34129
1920,502.0,9_25_32_34145
1921,502.0,9_25_32_34161
1922,501.0,9_25_32_34178
1923,501.0,9_25_32_34194
1924,502.0,9_25_32_34211
1925,502.0,9_25_32_34229
1926,502.0,9_25_32_34245
1927,502.0,9_25_32_34262
1928,502.0,9_25_32_34278
1929,501.0,9_25_32_34295
1930,501.0,9_25_32_34312
1931,502.0,9_25_32_34328
1932,502.0,9_25_32_34345
1933,502.0,9_25_32_34361
1934,502.0,9_25_32_34378
1935,502.0,9_25_32_34395
1936,502.0,9_25_32_34412
1937,501.0,9_25_32_34428
1938,501.0,9_25_32_34445
1939,501.0,9_25_32_34462
1940,501.0,9_25_32_34478
1941,502.0,9_25_32_34495
1942,502.0,9_25_32_34512
1943,502.0,9_25_32_34528
1944,502.0,9_25_32_34545
1945,501.0,9_25_32_34562
1946,501.0,9_25_32_34578
1947,502.0,9_25_32_34595
1948,501.0,9_25_32_34611
1949,503.0,9_25_32_34628
1950,502.0,9_25_32_34645
1951,502.0,9_25_32_34661
1952,502.0,9_25_32_34679
1953,502.0,9_25_32_34695
1954,501.0,9_25_32_34712
1955,501.0,9_25_32_34728
1956,502.0,9_25_32_34745
1957,502.0,9_25_32_34762
1958,502.0,9_25_32_34789
1959,502.0,9_25_32_34806
1960,502.0,9_25_32_34822
1961,501.0,9_25_32_34838
1962,501.0,9_25_32_34855
1963,502.0,9_25_32_34871
1964,503.0,9_25_32_34888
1965,502.0,9_25_32_34906
1966,503.0,9_25_32_34922
1967,502.0,9_25_32_34939
1968,501.0,9_25_32_34955
1969,501.0,9_25_32_34971
1970,502.0,9_25_32_34988
1971,502.0,9_25_32_35005
1972,503.0,9_25_32_35022
1973,503.0,9_25_32_35039
1974,502.0,9_25_32_35055
1975,501.0,9_25_33_35072
1976,502.0,9_25_33_35089
1977,501.0,9_25_33_35105
1978,502.0,9_25_33_35122
1979,502.0,9_25_33_35138
1980,503.0,9_25_33_35155
1981,502.0,9_25_33_35172
1982,502.0,9_25_33_35188
1983,502.0,9_25_33_35205
1984,501.0,9_25_33_35221
1985,501.0,9_25_33_35238
1986,502.0,9_25_33_35255
1987,503.0,9_25_33_35272
1988,503.0,9_25_33_35288
1989,502.0,9_25_33_35305
1990,502.0,9_25_33_35321
1991,502.0,9_25_33_35339
1992,501.0,9_25_33_35355
1993,502.0,9_25_33_35372
1994,501.0,9_25_33_35389
1995,502.0,9_25_33_35405
1996,502.0,9_25_33_35429
1997,502.0,9_25_33_35447
1998,502.0,9_25_33_35463
1999,501.0,9_25_33_35479
2000,501.0,9_25_33_35496
2001,502.0,9_25_33_35512
2002,502.0,9_25_33_35530
2003,503.0,9_25_33_35546
2004,502.0,9_25_33_35563
2005,502.0,9_25_33_35580
2006,501.0,9_25_33_35596
2007,501.0,9_25_33_35612
2008,501.0,9_25_33_35629
2009,502.0,9_25_33_35646
2010,502.0,9_25_33_35663
2011,503.0,9_25_33_35679
2012,502.0,9_25_33_35696
2013,502.0,9_25_33_35713
2014,502.0,9_25_33_35730
2015,502.0,9_25_33_35746
2016,502.0,9_25_33_35763
2017,502.0,9_25_33_35779
2018,503.0,9_25_33_35796
2019,502.0,9_25_33_35812
2020,502.0,9_25_33_35829
2021,502.0,9_25_33_35846
2022,501.0,9_25_33_35862
2023,502.0,9_25_33_35880
2024,502.0,9_25_33_35896
2025,502.0,9_25_33_35912
2026,502.0,9_25_33_35930
2027,502.0,9_25_33_35946
2028,503.0,9_25_33_35963
2029,501.0,9_25_33_35980
2030,501.0,9_25_33_35997
2031,501.0,9_25_33_36013
2032,501.0,9_25_33_36030
2033,502.0,9_25_33_36046
2034,503.0,9_25_34_36062
2035,502.0,9_25_34_36086
2036,502.0,9_25_34_36115
2037,502.0,9_25_34_36150
2038,502.0,9_25_34_36167
2039,501.0,9_25_34_36183
2040,501.0,9_25_34_36200
2041,502.0,9_25_34_36217
2042,502.0,9_25_34_36234
2043,502.0,9_25_34_36250
2044,502.0,9_25_34_36267
2045,501.0,9_25_34_36284
2046,501.0,9_25_34_36300
2047,502.0,9_25_34_36317
2048,501.0,9_25_34_36333
2049,502.0,9_25_34_36350
2050,503.0,9_25_34_36367
2051,502.0,9_25_34_36384
2052,502.0,9_25_34_36401
2053,502.0,9_25_34_36417
2054,501.0,9_25_34_36434
2055,502.0,9_25_34_36450
2056,502.0,9_25_34_36467
2057,503.0,9_25_34_36484
2058,502.0,9_25_34_36500
2059,502.0,9_25_34_36517
2060,501.0,9_25_34_36533
2061,501.0,9_25_34_36550
2062,502.0,9_25_34_36567
2063,501.0,9_25_34_36584
2064,503.0,9_25_34_36600
2065,502.0,9_25_34_36617
2066,502.0,9_25_34_36633
2067,502.0,9_25_34_36650
2068,502.0,9_25_34_36667
2069,502.0,9_25_34_36684
2070,502.0,9_25_34_36700
2071,501.0,9_25_34_36716
2072,502.0,9_25_34_36734
2073,502.0,9_25_34_36750
2074,502.0,9_25_34_36767
2075,502.0,9_25_34_36783
2076,502.0,9_25_34_36800
2077,501.0,9_25_34_36817
2078,501.0,9_25_34_36833
2079,502.0,9_25_34_36850
2080,503.0,9_25_34_36867
2081,503.0,9_25_34_36883
2082,502.0,9_25_34_36900
2083,501.0,9_25_34_36917
2084,501.0,9_25_34_36933
2085,501.0,9_25_34_36950
2086,502.0,9_25_34_36967
2087,502.0,9_25_34_36984
2088,502.0,9_25_34_37001
2089,503.0,9_25_34_37017
2090,502.0,9_25_34_37034
2091,501.0,9_25_34_37050
2092,501.0,9_25_35_37067
2093,501.0,9_25_35_37084
2094,502.0,9_25_35_37100
2095,502.0,9_25_35_37117
2096,502.0,9_25_35_37133
2097,502.0,9_25_35_37150
2098,502.0,9_25_35_37167
2099,501.0,9_25_35_37183
2100,502.0,9_25_35_37200
2101,502.0,9_25_35_37217
2102,502.0,9_25_35_37234
2103,502.0,9_25_35_37251
2104,502.0,9_25_35_37267
2105,502.0,9_25_35_37284
2106,502.0,9_25_35_37300
2107,502.0,9_25_35_37317
2108,502.0,9_25_35_37334
2109,502.0,9_25_35_37350
2110,502.0,9_25_35_37367
2111,502.0,9_25_35_37383
2112,502.0,9_25_35_37400
2113,502.0,9_25_35_37417
2114,502.0,9_25_35_37434
2115,502.0,9_25_35_37450
2116,502.0,9_25_35_37467
2117,502.0,9_25_35_37484
2118,502.0,9_25_35_37500
2119,503.0,9_25_35_37517
2120,502.0,9_25_35_37534
2121,502.0,9_25_35_37551
2122,501.0,9_25_35_37567
2123,501.0,9_25_35_37584
2124,501.0,9_25_35_37600
2125,502.0,9_25_35_37617
2126,502.0,9_25_35_37633
2127,502.0,9_25_35_37650
2128,502.0,9_25_35_37667
2129,502.0,9_25_35_37683
2130,501.0,9_25_35_37700
2131,501.0,9_25_35_37717
2132,502.0,9_25_35_37734
2133,502.0,9_25_35_37750
2134,502.0,9_25_35_37767
2135,503.0,9_25_35_37784
2136,502.0,9_25_35_37800
2137,501.0,9_25_35_37817
2138,502.0,9_25_35_37834
2139,501.0,9_25_35_37850
2140,502.0,9_25_35_37867
2141,503.0,9_25_35_37883
2142,502.0,9_25_35_37900
2143,502.0,9_25_35_37917
2144,502.0,9_25_35_37934
2145,501.0,9_25_35_37951
2146,501.0,9_25_35_37967
2147,502.0,9_25_35_37984
2148,502.0,9_25_35_38000
2149,503.0,9_25_35_38017
2150,502.0,9_25_35_38033
2151,502.0,9_25_35_38051
2152,502.0,9_25_36_38067
2153,502.0,9_25_36_38084
2154,502.0,9_25_36_38100
2155,501.0,9_25_36_38117
2156,502.0,9_25_36_38134
2157,502.0,9_25_36_38150
2158,502.0,9_25_36_38167
2159,502.0,9_25_36_38184
2160,502.0,9_25_36_38200
2161,501.0,9_25_36_38217
2162,501.0,9_25_36_38234
2163,502.0,9_25_36_38251
2164,502.0,9_25_36_38267
2165,502.0,9_25_36_38284
2166,502.0,9_25_36_38300
2167,502.0,9_25_36_38317
2168,501.0,9_25_36_38334
2169,502.0,9_25_36_38350
2170,502.0,9_25_36_38367
2171,502.0,9_25_36_38384
2172,502.0,9_25_36_38401
2173,502.0,9_25_36_38417
2174,502.0,9_25_36_38433
2175,502.0,9_25_36_38450
2176,502.0,9_25_36_38467
2177,501.0,9_25_36_38483
2178,502.0,9_25_36_38501
2179,502.0,9_25_36_38517
2180,502.0,9_25_36_38534
2181,502.0,9_25_36_38550
2182,502.0,9_25_36_38567
2183,501.0,9_25_36_38583
2184,501.0,9_25_36_38600
2185,501.0,9_25_36_38617
2186,502.0,9_25_36_38634
2187,502.0,9_25_36_38650
2188,502.0,9_25_36_38667
2189,502.0,9_25_36_38683
2190,501.0,9_25_36_38700
2191,501.0,9_25_36_38717
2192,502.0,9_25_36_38733
2193,501.0,9_25_36_38750
2194,502.0,9_25_36_38767
2195,503.0,9_25_36_38783
2196,503.0,9_25_36_38800
2197,502.0,9_25_36_38817
2198,502.0,9_25_36_38833
2199,501.0,9_25_36_38850
2200,502.0,9_25_36_38867
2201,502.0,9_25_36_38883
2202,502.0,9_25_36_38900
2203,502.0,9_25_36_38917
2204,503.0,9_25_36_38934
2205,502.0,9_25_36_38951
2206,501.0,9_25_36_38967
2207,501.0,9_25_36_38984
2208,501.0,9_25_36_39000
2209,502.0,9_25_36_39017
2210,502.0,9_25_36_39034
2211,502.0,9_25_36_39050
2212,502.0,9_25_37_39067
2213,502.0,9_25_37_39084
2214,501.0,9_25_37_39100
2215,501.0,9_25_37_39117
2216,502.0,9_25_37_39133
2217,502.0,9_25_37_39151
2218,502.0,9_25_37_39167
2219,502.0,9_25_37_39184
2220,502.0,9_25_37_39200
2221,502.0,9_25_37_39217
2222,502.0,9_25_37_39234
2223,502.0,9_25_37_39250
2224,502.0,9_25_37_39267
2225,501.0,9_25_37_39283
2226,502.0,9_25_37_39300
2227,502.0,9_25_37_39317
2228,502.0,9_25_37_39334
2229,501.0,9_25_37_39350
2230,501.0,9_25_37_39367
