position,GSR_Reading,Time_Stamp
0,113.0,9_44_20_350
1,114.0,9_44_20_352
2,115.0,9_44_20_353
3,116.0,9_44_20_353
4,117.0,9_44_20_354
5,118.0,9_44_20_354
6,119.0,9_44_20_355
7,120.0,9_44_20_355
8,121.0,9_44_20_356
9,122.0,9_44_20_357
10,123.0,9_44_20_357
11,NaN,9_44_20_358
12,99.0,9_44_20_359
13,100.0,9_44_20_359
14,101.0,9_44_20_360
15,102.0,9_44_20_361
16,103.0,9_44_20_361
17,104.0,9_44_20_365
18,105.0,9_44_20_368
19,106.0,9_44_20_369
20,107.0,9_44_20_371
21,108.0,9_44_20_374
22,109.0,9_44_20_375
23,110.0,9_44_20_375
24,111.0,9_44_20_376
25,112.0,9_44_20_377
26,113.0,9_44_20_379
27,114.0,9_44_20_382
28,115.0,9_44_20_384
29,116.0,9_44_20_386
30,117.0,9_44_20_388
31,118.0,9_44_20_393
32,119.0,9_44_20_394
33,120.0,9_44_20_395
34,121.0,9_44_20_395
35,122.0,9_44_20_406
36,123.0,9_44_20_407
37,NaN,9_44_20_409
38,99.0,9_44_20_412
39,100.0,9_44_20_413
40,101.0,9_44_20_413
41,102.0,9_44_20_415
42,103.0,9_44_20_417
43,104.0,9_44_20_418
44,105.0,9_44_20_422
45,106.0,9_44_20_422
46,107.0,9_44_20_427
47,108.0,9_44_20_428
48,109.0,9_44_20_428
49,110.0,9_44_20_429
50,111.0,9_44_20_430
51,112.0,9_44_20_432
52,113.0,9_44_20_433
53,114.0,9_44_20_434
54,115.0,9_44_20_435
55,116.0,9_44_20_437
56,117.0,9_44_20_437
57,118.0,9_44_20_438
58,119.0,9_44_20_439
59,120.0,9_44_20_440
60,121.0,9_44_20_440
61,122.0,9_44_20_441
62,123.0,9_44_20_442
63,NaN,9_44_21_1893
64,1.0,9_44_21_1901
65,2.0,9_44_21_1905
66,3.0,9_44_21_1908
67,4.0,9_44_21_1910
68,5.0,9_44_21_1912
69,6.0,9_44_21_1913
70,7.0,9_44_21_1915
71,8.0,9_44_21_1916
72,9.0,9_44_21_1918
73,10.0,9_44_21_1919
74,11.0,9_44_21_1921
75,12.0,9_44_21_1922
76,13.0,9_44_21_1923
77,14.0,9_44_21_1923
78,15.0,9_44_21_1924
79,16.0,9_44_21_1925
80,17.0,9_44_21_1927
81,18.0,9_44_21_1929
82,19.0,9_44_21_1930
83,20.0,9_44_21_1931
84,21.0,9_44_21_1933
85,22.0,9_44_21_1934
86,23.0,9_44_21_1936
87,24.0,9_44_21_1937
88,25.0,9_44_21_1941
89,26.0,9_44_21_1942
90,27.0,9_44_21_1946
91,28.0,9_44_21_1947
92,29.0,9_44_21_1950
93,30.0,9_44_21_1952
94,31.0,9_44_21_1954
95,32.0,9_44_21_1955
96,33.0,9_44_21_1957
97,34.0,9_44_21_1958
98,35.0,9_44_21_1962
99,36.0,9_44_22_1963
100,37.0,9_44_22_1965
101,38.0,9_44_22_1966
102,39.0,9_44_22_1970
103,40.0,9_44_22_1970
104,41.0,9_44_22_1974
105,42.0,9_44_22_1976
106,43.0,9_44_22_1978
107,44.0,9_44_22_1979
108,45.0,9_44_22_1982
109,46.0,9_44_22_1983
110,47.0,9_44_22_1986
111,48.0,9_44_22_1986
112,49.0,9_44_22_1990
113,50.0,9_44_22_1994
114,51.0,9_44_22_1994
115,52.0,9_44_22_1998
116,53.0,9_44_22_1998
117,54.0,9_44_22_2002
118,55.0,9_44_22_2003
119,56.0,9_44_22_2007
120,57.0,9_44_22_2007
121,58.0,9_44_22_2011
122,59.0,9_44_22_2011
123,60.0,9_44_22_2015
124,61.0,9_44_22_2015
125,62.0,9_44_22_2019
126,63.0,9_44_22_2020
127,64.0,9_44_22_2023
128,65.0,9_44_22_2024
129,66.0,9_44_22_2028
130,67.0,9_44_22_2028
131,68.0,9_44_22_2031
132,69.0,9_44_22_2032
133,70.0,9_44_22_2035
134,71.0,9_44_22_2036
135,72.0,9_44_22_2039
136,73.0,9_44_22_2040
137,74.0,9_44_22_2043
138,75.0,9_44_22_2044
139,76.0,9_44_22_2048
140,77.0,9_44_22_2048
141,78.0,9_44_22_2052
142,79.0,9_44_22_2052
143,80.0,9_44_22_2056
144,81.0,9_44_22_2056
145,82.0,9_44_22_2060
146,83.0,9_44_22_2061
147,84.0,9_44_22_2064
148,85.0,9_44_22_2064
149,86.0,9_44_22_2068
150,87.0,9_44_22_2069
151,88.0,9_44_22_2072
152,89.0,9_44_22_2072
153,90.0,9_44_22_2076
154,91.0,9_44_22_2076
155,92.0,9_44_22_2080
156,93.0,9_44_22_2081
157,94.0,9_44_22_2085
158,95.0,9_44_22_2085
159,96.0,9_44_22_2088
160,97.0,9_44_22_2088
161,98.0,9_44_22_2092
162,99.0,9_44_22_2092
163,100.0,9_44_22_2096
164,101.0,9_44_22_2100
165,102.0,9_44_22_2101
166,103.0,9_44_22_2104
167,104.0,9_44_22_2109
168,105.0,9_44_22_2110
169,106.0,9_44_22_2113
170,107.0,9_44_22_2113
171,108.0,9_44_22_2117
172,109.0,9_44_22_2121
173,110.0,9_44_22_2122
174,111.0,9_44_22_2126
175,112.0,9_44_22_2130
176,113.0,9_44_22_2132
177,114.0,9_44_22_2134
178,115.0,9_44_22_2138
179,116.0,9_44_22_2138
180,117.0,9_44_22_2142
181,118.0,9_44_22_2142
182,119.0,9_44_22_2146
183,120.0,9_44_22_2150
184,121.0,9_44_22_2151
185,122.0,9_44_22_2154
186,123.0,9_44_22_2158
187,124.0,9_44_22_2158
188,125.0,9_44_22_2162
189,126.0,9_44_22_2167
190,127.0,9_44_22_2167
191,128.0,9_44_22_2170
192,129.0,9_44_22_2171
193,130.0,9_44_22_2175
194,131.0,9_44_22_2179
195,132.0,9_44_22_2180
196,133.0,9_44_22_2182
197,134.0,9_44_22_2187
198,135.0,9_44_22_2188
199,136.0,9_44_22_2190
200,137.0,9_44_22_2195
201,138.0,9_44_22_2196
202,139.0,9_44_22_2199
203,140.0,9_44_22_2199
204,141.0,9_44_22_2203
205,142.0,9_44_22_2207
206,143.0,9_44_22_2208
207,144.0,9_44_22_2211
208,145.0,9_44_22_2215
209,146.0,9_44_22_2216
210,147.0,9_44_22_2220
211,148.0,9_44_22_2224
212,149.0,9_44_22_2224
213,150.0,9_44_22_2228
214,151.0,9_44_22_2229
215,152.0,9_44_22_2232
216,153.0,9_44_22_2236
217,154.0,9_44_22_2236
218,155.0,9_44_22_2240
219,156.0,9_44_22_2244
220,157.0,9_44_22_2245
221,158.0,9_44_22_2249
222,159.0,9_44_22_2253
223,160.0,9_44_22_2253
224,161.0,9_44_22_2256
225,162.0,9_44_22_2257
226,163.0,9_44_22_2261
227,164.0,9_44_22_2265
228,165.0,9_44_22_2266
229,166.0,9_44_22_2269
230,167.0,9_44_22_2273
231,168.0,9_44_22_2274
232,169.0,9_44_22_2277
233,170.0,9_44_22_2278
234,171.0,9_44_22_2280
235,172.0,9_44_22_2286
236,173.0,9_44_22_2286
237,174.0,9_44_22_2289
238,175.0,9_44_22_2293
239,176.0,9_44_22_2294
240,177.0,9_44_22_2298
241,178.0,9_44_22_2302
242,179.0,9_44_22_2302
243,180.0,9_44_22_2305
244,181.0,9_44_22_2306
245,182.0,9_44_22_2310
246,183.0,9_44_22_2314
247,184.0,9_44_22_2314
248,185.0,9_44_22_2318
249,186.0,9_44_22_2322
250,187.0,9_44_22_2322
251,188.0,9_44_22_2326
252,189.0,9_44_22_2330
253,190.0,9_44_22_2332
254,191.0,9_44_22_2334
255,192.0,9_44_22_2335
256,193.0,9_44_22_2338
257,194.0,9_44_22_2343
258,195.0,9_44_22_2343
259,196.0,9_44_22_2346
260,197.0,9_44_22_2354
261,198.0,9_44_22_2354
262,199.0,9_44_22_2355
263,200.0,9_44_22_2358
264,201.0,9_44_22_2359
265,202.0,9_44_22_2363
266,203.0,9_44_22_2363
267,204.0,9_44_22_2367
268,205.0,9_44_22_2371
269,206.0,9_44_22_2372
270,207.0,9_44_22_2376
271,208.0,9_44_22_2379
272,209.0,9_44_22_2380
273,210.0,9_44_22_2384
274,211.0,9_44_22_2388
275,212.0,9_44_22_2388
276,213.0,9_44_22_2392
277,214.0,9_44_22_2393
278,215.0,9_44_22_2395
279,216.0,9_44_22_2400
280,217.0,9_44_22_2401
281,218.0,9_44_22_2403
282,219.0,9_44_22_2408
283,220.0,9_44_22_2409
284,221.0,9_44_22_2412
285,222.0,9_44_22_2416
286,223.0,9_44_22_2416
287,224.0,9_44_22_2421
288,225.0,9_44_22_2421
289,226.0,9_44_22_2424
290,227.0,9_44_22_2429
291,228.0,9_44_22_2430
292,229.0,9_44_22_2432
293,230.0,9_44_22_2436
294,231.0,9_44_22_2437
295,232.0,9_44_22_2440
296,233.0,9_44_22_2441
297,234.0,9_44_22_2445
298,235.0,9_44_22_2448
299,236.0,9_44_22_2449
300,237.0,9_44_22_2453
301,238.0,9_44_22_2458
302,239.0,9_44_22_2459
303,240.0,9_44_22_2461
304,241.0,9_44_22_2465
305,242.0,9_44_22_2466
306,243.0,9_44_22_2469
307,244.0,9_44_22_2470
308,245.0,9_44_22_2474
309,246.0,9_44_22_2477
310,247.0,9_44_22_2478
311,248.0,9_44_22_2482
312,249.0,9_44_22_2485
313,250.0,9_44_22_2486
314,251.0,9_44_22_2490
315,252.0,9_44_22_2493
316,253.0,9_44_22_2494
317,254.0,9_44_22_2498
318,255.0,9_44_22_2498
319,256.0,9_44_22_2502
320,257.0,9_44_22_2506
321,258.0,9_44_22_2506
322,259.0,9_44_22_2510
323,260.0,9_44_22_2514
324,261.0,9_44_22_2515
325,262.0,9_44_22_2519
326,263.0,9_44_22_2523
327,264.0,9_44_22_2523
328,265.0,9_44_22_2527
329,266.0,9_44_22_2527
330,267.0,9_44_22_2531
331,268.0,9_44_22_2535
332,269.0,9_44_22_2536
333,270.0,9_44_22_2539
334,271.0,9_44_22_2543
335,272.0,9_44_22_2543
336,273.0,9_44_22_2547
337,274.0,9_44_22_2551
338,275.0,9_44_22_2552
339,276.0,9_44_22_2556
340,277.0,9_44_22_2556
341,278.0,9_44_22_2559
342,279.0,9_44_22_2564
343,280.0,9_44_22_2564
344,281.0,9_44_22_2568
345,282.0,9_44_22_2572
346,283.0,9_44_22_2572
347,284.0,9_44_22_2576
348,285.0,9_44_22_2580
349,286.0,9_44_22_2581
350,287.0,9_44_22_2585
351,288.0,9_44_22_2585
352,289.0,9_44_22_2588
353,290.0,9_44_22_2592
354,291.0,9_44_22_2593
355,292.0,9_44_22_2597
356,293.0,9_44_22_2601
357,294.0,9_44_22_2601
358,295.0,9_44_22_2604
359,296.0,9_44_22_2609
360,297.0,9_44_22_2610
361,298.0,9_44_22_2613
362,299.0,9_44_22_2613
363,300.0,9_44_22_2617
364,301.0,9_44_22_2621
365,302.0,9_44_22_2622
366,303.0,9_44_22_2626
367,304.0,9_44_22_2630
368,305.0,9_44_22_2631
369,306.0,9_44_22_2633
370,307.0,9_44_22_2635
371,308.0,9_44_22_2637
372,309.0,9_44_22_2642
373,310.0,9_44_22_2643
374,311.0,9_44_22_2646
375,312.0,9_44_22_2650
376,313.0,9_44_22_2651
377,314.0,9_44_22_2654
378,315.0,9_44_22_2658
379,316.0,9_44_22_2659
380,317.0,9_44_22_2662
381,318.0,9_44_22_2662
382,319.0,9_44_22_2666
383,320.0,9_44_22_2670
384,321.0,9_44_22_2671
385,322.0,9_44_22_2674
386,323.0,9_44_22_2678
387,324.0,9_44_22_2679
388,325.0,9_44_22_2683
389,326.0,9_44_22_2687
390,327.0,9_44_22_2687
391,328.0,9_44_22_2691
392,329.0,9_44_22_2692
393,330.0,9_44_22_2694
394,331.0,9_44_22_2699
395,332.0,9_44_22_2700
396,333.0,9_44_22_2702
397,334.0,9_44_22_2706
398,335.0,9_44_22_2707
399,336.0,9_44_22_2711
400,337.0,9_44_22_2715
401,338.0,9_44_22_2715
402,339.0,9_44_22_2719
403,340.0,9_44_22_2720
404,341.0,9_44_22_2724
405,342.0,9_44_22_2728
406,343.0,9_44_22_2729
407,344.0,9_44_22_2732
408,345.0,9_44_22_2736
409,346.0,9_44_22_2736
410,347.0,9_44_22_2739
411,348.0,9_44_22_2744
412,349.0,9_44_22_2745
413,350.0,9_44_22_2748
414,351.0,9_44_22_2748
415,352.0,9_44_22_2752
416,353.0,9_44_22_2757
417,354.0,9_44_22_2757
418,355.0,9_44_22_2760
419,356.0,9_44_22_2764
420,357.0,9_44_22_2765
421,358.0,9_44_22_2769
422,359.0,9_44_22_2773
423,360.0,9_44_22_2773
424,361.0,9_44_22_2776
425,362.0,9_44_22_2777
426,363.0,9_44_22_2781
427,364.0,9_44_22_2785
428,365.0,9_44_22_2785
429,366.0,9_44_22_2789
430,367.0,9_44_22_2793
431,368.0,9_44_22_2794
432,369.0,9_44_22_2797
433,370.0,9_44_22_2797
434,371.0,9_44_22_2801
435,372.0,9_44_22_2805
436,373.0,9_44_22_2806
437,374.0,9_44_22_2809
438,375.0,9_44_22_2813
439,376.0,9_44_22_2814
440,377.0,9_44_22_2818
441,378.0,9_44_22_2822
442,379.0,9_44_22_2822
443,380.0,9_44_22_2826
444,381.0,9_44_22_2827
445,382.0,9_44_22_2830
446,383.0,9_44_22_2834
447,384.0,9_44_22_2835
448,385.0,9_44_22_2838
449,386.0,9_44_22_2842
450,387.0,9_44_22_2842
451,388.0,9_44_22_2846
452,389.0,9_44_22_2850
453,390.0,9_44_22_2851
454,391.0,9_44_22_2855
455,392.0,9_44_22_2855
456,393.0,9_44_22_2858
457,394.0,9_44_22_2863
458,395.0,9_44_22_2864
459,396.0,9_44_22_2867
460,397.0,9_44_22_2871
461,398.0,9_44_22_2871
462,399.0,9_44_22_2875
463,400.0,9_44_22_2879
464,401.0,9_44_22_2880
465,402.0,9_44_22_2883
466,403.0,9_44_22_2883
467,404.0,9_44_22_2887
468,405.0,9_44_22_2891
469,406.0,9_44_22_2892
470,407.0,9_44_22_2896
471,408.0,9_44_22_2899
472,409.0,9_44_22_2899
473,410.0,9_44_22_2903
474,411.0,9_44_22_2908
475,412.0,9_44_22_2908
476,413.0,9_44_22_2912
477,414.0,9_44_22_2913
478,415.0,9_44_22_2916
479,416.0,9_44_22_2920
480,417.0,9_44_22_2920
481,418.0,9_44_22_2924
482,419.0,9_44_22_2928
483,420.0,9_44_22_2930
484,421.0,9_44_22_2932
485,422.0,9_44_22_2936
486,423.0,9_44_22_2936
487,424.0,9_44_22_2940
488,425.0,9_44_22_2946
489,426.0,9_44_22_2947
490,427.0,9_44_22_2949
491,428.0,9_44_22_2949
492,429.0,9_44_22_2953
493,430.0,9_44_22_2957
494,431.0,9_44_22_2959
495,432.0,9_44_22_2961
496,433.0,9_44_23_2965
497,434.0,9_44_23_2966
498,435.0,9_44_23_2969
499,436.0,9_44_23_2970
500,437.0,9_44_23_2973
501,438.0,9_44_23_2978
502,439.0,9_44_23_2979
503,440.0,9_44_23_2981
504,441.0,9_44_23_2985
505,442.0,9_44_23_2986
506,443.0,9_44_23_2990
507,444.0,9_44_23_2991
508,445.0,9_44_23_2994
509,446.0,9_44_23_2998
510,447.0,9_44_23_2998
511,448.0,9_44_23_3002
512,449.0,9_44_23_3006
513,450.0,9_44_23_3007
514,451.0,9_44_23_3010
515,452.0,9_44_23_3014
516,453.0,9_44_23_3015
517,454.0,9_44_23_3018
518,455.0,9_44_23_3018
519,456.0,9_44_23_3022
520,457.0,9_44_23_3026
521,458.0,9_44_23_3027
522,459.0,9_44_23_3031
523,460.0,9_44_23_3035
524,461.0,9_44_23_3036
525,462.0,9_44_23_3038
526,463.0,9_44_23_3042
527,464.0,9_44_23_3043
528,465.0,9_44_23_3047
529,466.0,9_44_23_3048
530,467.0,9_44_23_3051
531,468.0,9_44_23_3056
532,469.0,9_44_23_3056
533,470.0,9_44_23_3059
534,471.0,9_44_23_3063
535,472.0,9_44_23_3064
536,473.0,9_44_23_3068
537,474.0,9_44_23_3072
538,475.0,9_44_23_3072
539,476.0,9_44_23_3075
540,477.0,9_44_23_3076
541,478.0,9_44_23_3080
542,479.0,9_44_23_3084
543,480.0,9_44_23_3084
544,481.0,9_44_23_3088
545,482.0,9_44_23_3092
546,483.0,9_44_23_3093
547,484.0,9_44_23_3096
548,485.0,9_44_23_3100
549,486.0,9_44_23_3100
550,487.0,9_44_23_3104
551,488.0,9_44_23_3105
552,489.0,9_44_23_3109
553,490.0,9_44_23_3112
554,491.0,9_44_23_3113
555,492.0,9_44_23_3117
556,493.0,9_44_23_3121
557,494.0,9_44_23_3121
558,495.0,9_44_23_3125
559,496.0,9_44_23_3128
560,497.0,9_44_23_3129
561,498.0,9_44_23_3133
562,499.0,9_44_23_3134
563,500.0,9_44_23_3137
564,501.0,9_44_23_3141
565,502.0,9_44_23_3142
566,503.0,9_44_23_3146
567,504.0,9_44_23_3150
568,505.0,9_44_23_3150
569,506.0,9_44_23_3153
570,507.0,9_44_23_3154
571,508.0,9_44_23_3158
572,509.0,9_44_23_3161
573,510.0,9_44_23_3162
574,511.0,9_44_23_3166
575,512.0,9_44_23_3170
576,513.0,9_44_23_3171
577,514.0,9_44_23_3174
578,515.0,9_44_23_3178
579,516.0,9_44_23_3178
580,517.0,9_44_23_3182
581,518.0,9_44_23_3183
582,519.0,9_44_23_3186
583,520.0,9_44_23_3191
584,521.0,9_44_23_3191
585,522.0,9_44_23_3194
586,523.0,9_44_23_3199
587,524.0,9_44_23_3200
588,525.0,9_44_23_3203
589,526.0,9_44_23_3207
590,527.0,9_44_23_3207
591,528.0,9_44_23_3210
592,529.0,9_44_23_3211
593,530.0,9_44_23_3215
594,531.0,9_44_23_3219
595,532.0,9_44_23_3219
596,533.0,9_44_23_3223
597,534.0,9_44_23_3228
598,535.0,9_44_23_3229
599,536.0,9_44_23_3232
600,537.0,9_44_23_3236
601,538.0,9_44_23_3236
602,539.0,9_44_23_3239
603,540.0,9_44_23_3240
604,541.0,9_44_23_3244
605,542.0,9_44_23_3248
606,543.0,9_44_23_3248
607,544.0,9_44_23_3252
608,545.0,9_44_23_3256
609,546.0,9_44_23_3257
610,547.0,9_44_23_3260
611,548.0,9_44_23_3264
612,549.0,9_44_23_3265
613,550.0,9_44_23_3268
614,551.0,9_44_23_3268
615,552.0,9_44_23_3272
616,553.0,9_44_23_3277
617,554.0,9_44_23_3277
618,555.0,9_44_23_3280
619,556.0,9_44_23_3285
620,557.0,9_44_23_3285
621,558.0,9_44_23_3288
622,559.0,9_44_23_3292
623,560.0,9_44_23_3293
624,561.0,9_44_23_3297
625,562.0,9_44_23_3298
626,563.0,9_44_23_3301
627,564.0,9_44_23_3305
628,565.0,9_44_23_3306
629,566.0,9_44_23_3309
630,567.0,9_44_23_3313
631,568.0,9_44_23_3314
632,569.0,9_44_23_3318
633,570.0,9_44_23_3322
634,571.0,9_44_23_3322
635,572.0,9_44_23_3325
636,573.0,9_44_23_3326
637,574.0,9_44_23_3330
638,575.0,9_44_23_3333
639,576.0,9_44_23_3334
640,577.0,9_44_23_3338
641,578.0,9_44_23_3342
642,579.0,9_44_23_3343
643,580.0,9_44_23_3346
644,581.0,9_44_23_3347
645,582.0,9_44_23_3350
646,583.0,9_44_23_3354
647,584.0,9_44_23_3354
648,585.0,9_44_23_3358
649,586.0,9_44_23_3363
650,587.0,9_44_23_3363
651,588.0,9_44_23_3366
652,589.0,9_44_23_3370
653,590.0,9_44_23_3372
654,591.0,9_44_23_3374
655,592.0,9_44_23_3375
656,593.0,9_44_23_3380
657,594.0,9_44_23_3382
658,595.0,9_44_23_3383
659,596.0,9_44_23_3387
660,597.0,9_44_23_3391
661,598.0,9_44_23_3392
662,599.0,9_44_23_3395
663,600.0,9_44_23_3400
664,601.0,9_44_23_3400
665,602.0,9_44_23_3403
666,603.0,9_44_23_3404
667,604.0,9_44_23_3407
668,605.0,9_44_23_3411
669,606.0,9_44_23_3412
670,607.0,9_44_23_3416
671,608.0,9_44_23_3419
672,609.0,9_44_23_3420
673,610.0,9_44_23_3424
674,611.0,9_44_23_3428
675,612.0,9_44_23_3429
676,613.0,9_44_23_3432
677,614.0,9_44_23_3433
678,615.0,9_44_23_3436
679,616.0,9_44_23_3441
680,617.0,9_44_23_3441
681,618.0,9_44_23_3444
682,619.0,9_44_23_3448
683,620.0,9_44_23_3449
684,621.0,9_44_23_3452
685,622.0,9_44_23_3456
686,623.0,9_44_23_3457
687,624.0,9_44_23_3461
688,625.0,9_44_23_3462
689,626.0,9_44_23_3465
690,627.0,9_44_23_3469
691,628.0,9_44_23_3470
692,629.0,9_44_23_3473
693,630.0,9_44_23_3477
694,631.0,9_44_23_3478
695,632.0,9_44_23_3481
696,633.0,9_44_23_3485
697,634.0,9_44_23_3486
698,635.0,9_44_23_3490
699,636.0,9_44_23_3490
700,637.0,9_44_23_3493
701,638.0,9_44_23_3497
702,639.0,9_44_23_3498
703,640.0,9_44_23_3502
704,641.0,9_44_23_3506
705,642.0,9_44_23_3507
706,643.0,9_44_23_3510
707,644.0,9_44_23_3510
708,645.0,9_44_23_3513
709,646.0,9_44_23_3517
710,647.0,9_44_23_3518
711,648.0,9_44_23_3522
712,649.0,9_44_23_3527
713,650.0,9_44_23_3528
714,651.0,9_44_23_3530
715,652.0,9_44_23_3535
716,653.0,9_44_23_3536
717,654.0,9_44_23_3539
718,655.0,9_44_23_3539
719,656.0,9_44_23_3542
720,657.0,9_44_23_3546
721,658.0,9_44_23_3547
722,659.0,9_44_23_3551
723,660.0,9_44_23_3555
724,661.0,9_44_23_3556
725,662.0,9_44_23_3559
726,663.0,9_44_23_3564
727,664.0,9_44_23_3564
728,665.0,9_44_23_3567
729,666.0,9_44_23_3568
730,667.0,9_44_23_3572
731,668.0,9_44_23_3576
732,669.0,9_44_23_3577
733,670.0,9_44_23_3580
734,671.0,9_44_23_3584
735,672.0,9_44_23_3585
736,673.0,9_44_23_3588
737,674.0,9_44_23_3592
738,675.0,9_44_23_3593
739,676.0,9_44_23_3596
740,677.0,9_44_23_3597
741,678.0,9_44_23_3600
742,679.0,9_44_23_3604
743,680.0,9_44_23_3605
744,681.0,9_44_23_3608
745,682.0,9_44_23_3612
746,683.0,9_44_23_3613
747,684.0,9_44_23_3617
748,685.0,9_44_23_3620
749,686.0,9_44_23_3621
750,687.0,9_44_23_3625
751,688.0,9_44_23_3626
752,689.0,9_44_23_3629
753,690.0,9_44_23_3632
754,691.0,9_44_23_3633
755,692.0,9_44_23_3637
756,693.0,9_44_23_3641
757,694.0,9_44_23_3642
758,695.0,9_44_23_3645
759,696.0,9_44_23_3649
760,697.0,9_44_23_3650
761,698.0,9_44_23_3653
762,699.0,9_44_23_3654
763,700.0,9_44_23_3657
764,701.0,9_44_23_3661
765,702.0,9_44_23_3662
766,703.0,9_44_23_3666
767,704.0,9_44_23_3670
768,705.0,9_44_23_3670
769,706.0,9_44_23_3674
770,707.0,9_44_23_3678
771,708.0,9_44_23_3679
772,709.0,9_44_23_3682
773,710.0,9_44_23_3682
774,711.0,9_44_23_3686
775,712.0,9_44_23_3690
776,713.0,9_44_23_3690
777,714.0,9_44_23_3695
778,715.0,9_44_23_3699
779,716.0,9_44_23_3700
780,717.0,9_44_23_3702
781,718.0,9_44_23_3703
782,719.0,9_44_23_3706
783,720.0,9_44_23_3710
784,721.0,9_44_23_3711
785,722.0,9_44_23_3715
786,723.0,9_44_23_3718
787,724.0,9_44_23_3719
788,725.0,9_44_23_3723
789,726.0,9_44_23_3727
790,727.0,9_44_23_3728
791,728.0,9_44_23_3731
792,729.0,9_44_23_3738
793,730.0,9_44_23_3739
794,731.0,9_44_23_3740
795,732.0,9_44_23_3740
796,733.0,9_44_23_3743
797,734.0,9_44_23_3747
798,735.0,9_44_23_3748
799,736.0,9_44_23_3752
800,737.0,9_44_23_3756
801,738.0,9_44_23_3756
802,739.0,9_44_23_3759
803,740.0,9_44_23_3761
804,741.0,9_44_23_3763
805,742.0,9_44_23_3767
806,743.0,9_44_23_3768
807,744.0,9_44_23_3772
808,745.0,9_44_23_3776
809,746.0,9_44_23_3777
810,747.0,9_44_23_3780
811,748.0,9_44_23_3784
812,749.0,9_44_23_3785
813,750.0,9_44_23_3788
814,751.0,9_44_23_3789
815,752.0,9_44_23_3793
816,753.0,9_44_23_3796
817,754.0,9_44_23_3797
818,755.0,9_44_23_3801
819,756.0,9_44_23_3805
820,757.0,9_44_23_3806
821,758.0,9_44_23_3809
822,759.0,9_44_23_3813
823,760.0,9_44_23_3814
824,761.0,9_44_23_3817
825,762.0,9_44_23_3818
826,763.0,9_44_23_3821
827,764.0,9_44_23_3825
828,765.0,9_44_23_3826
829,766.0,9_44_23_3829
830,767.0,9_44_23_3833
831,768.0,9_44_23_3834
832,769.0,9_44_23_3837
833,770.0,9_44_23_3841
834,771.0,9_44_23_3842
835,772.0,9_44_23_3845
836,773.0,9_44_23_3846
837,774.0,9_44_23_3850
838,775.0,9_44_23_3854
839,776.0,9_44_23_3855
840,777.0,9_44_23_3857
841,778.0,9_44_23_3862
842,779.0,9_44_23_3862
843,780.0,9_44_23_3866
844,781.0,9_44_23_3867
845,782.0,9_44_23_3870
846,783.0,9_44_23_3875
847,784.0,9_44_23_3875
848,785.0,9_44_23_3878
849,786.0,9_44_23_3882
850,787.0,9_44_23_3883
851,788.0,9_44_23_3887
852,789.0,9_44_23_3891
853,790.0,9_44_23_3892
854,791.0,9_44_23_3895
855,792.0,9_44_23_3895
856,793.0,9_44_23_3899
857,794.0,9_44_23_3903
858,795.0,9_44_23_3904
859,796.0,9_44_23_3907
860,797.0,9_44_23_3911
861,798.0,9_44_23_3912
862,799.0,9_44_23_3915
863,800.0,9_44_23_3920
864,801.0,9_44_23_3920
865,802.0,9_44_23_3923
866,803.0,9_44_23_3924
867,804.0,9_44_23_3928
868,805.0,9_44_23_3932
869,806.0,9_44_23_3932
870,807.0,9_44_23_3936
871,808.0,9_44_23_3940
872,809.0,9_44_23_3941
873,810.0,9_44_23_3944
874,811.0,9_44_23_3948
875,812.0,9_44_23_3949
876,813.0,9_44_23_3953
877,814.0,9_44_23_3953
878,815.0,9_44_23_3956
879,816.0,9_44_23_3961
880,817.0,9_44_23_3961
881,818.0,9_44_24_3964
882,819.0,9_44_24_3969
883,820.0,9_44_24_3970
884,821.0,9_44_24_3973
885,822.0,9_44_24_3977
886,823.0,9_44_24_3978
887,824.0,9_44_24_3980
888,825.0,9_44_24_3981
889,826.0,9_44_24_3985
890,827.0,9_44_24_3989
891,828.0,9_44_24_3990
892,829.0,9_44_24_3993
893,830.0,9_44_24_3997
894,831.0,9_44_24_3998
895,832.0,9_44_24_4001
896,833.0,9_44_24_4005
897,834.0,9_44_24_4006
898,835.0,9_44_24_4009
899,836.0,9_44_24_4010
900,837.0,9_44_24_4014
901,838.0,9_44_24_4018
902,839.0,9_44_24_4019
903,840.0,9_44_24_4021
904,841.0,9_44_24_4026
905,842.0,9_44_24_4027
906,843.0,9_44_24_4031
907,844.0,9_44_24_4038
908,845.0,9_44_24_4040
909,846.0,9_44_24_4040
910,847.0,9_44_24_4041
911,848.0,9_44_24_4042
912,849.0,9_44_24_4046
913,850.0,9_44_24_4047
914,851.0,9_44_24_4050
915,852.0,9_44_24_4054
916,853.0,9_44_24_4055
917,854.0,9_44_24_4059
918,855.0,9_44_24_4060
919,856.0,9_44_24_4063
920,857.0,9_44_24_4067
921,858.0,9_44_24_4068
922,859.0,9_44_24_4071
923,860.0,9_44_24_4075
924,861.0,9_44_24_4076
925,862.0,9_44_24_4079
926,863.0,9_44_24_4083
927,864.0,9_44_24_4084
928,865.0,9_44_24_4087
929,866.0,9_44_24_4088
930,867.0,9_44_24_4092
931,868.0,9_44_24_4095
932,869.0,9_44_24_4096
933,870.0,9_44_24_4100
934,871.0,9_44_24_4104
935,872.0,9_44_24_4105
936,873.0,9_44_24_4108
937,874.0,9_44_24_4112
938,875.0,9_44_24_4113
939,876.0,9_44_24_4116
940,877.0,9_44_24_4117
941,878.0,9_44_24_4120
942,879.0,9_44_24_4124
943,880.0,9_44_24_4125
944,881.0,9_44_24_4128
945,882.0,9_44_24_4133
946,883.0,9_44_24_4134
947,884.0,9_44_24_4137
948,885.0,9_44_24_4141
949,886.0,9_44_24_4142
950,887.0,9_44_24_4145
951,888.0,9_44_24_4146
952,889.0,9_44_24_4149
953,890.0,9_44_24_4153
954,891.0,9_44_24_4154
955,892.0,9_44_24_4157
956,893.0,9_44_24_4161
957,894.0,9_44_24_4162
958,895.0,9_44_24_4166
959,896.0,9_44_24_4169
960,897.0,9_44_24_4170
961,898.0,9_44_24_4174
962,899.0,9_44_24_4174
963,900.0,9_44_24_4177
964,901.0,9_44_24_4182
965,902.0,9_44_24_4183
966,903.0,9_44_24_4186
967,904.0,9_44_24_4190
968,905.0,9_44_24_4190
969,906.0,9_44_24_4193
970,907.0,9_44_24_4198
971,908.0,9_44_24_4198
972,909.0,9_44_24_4202
973,910.0,9_44_24_4203
974,911.0,9_44_24_4206
975,912.0,9_44_24_4210
976,913.0,9_44_24_4211
977,914.0,9_44_24_4214
978,915.0,9_44_24_4218
979,916.0,9_44_24_4219
980,917.0,9_44_24_4222
981,918.0,9_44_24_4223
982,919.0,9_44_24_4226
983,920.0,9_44_24_4231
984,921.0,9_44_24_4232
985,922.0,9_44_24_4235
986,923.0,9_44_24_4239
987,924.0,9_44_24_4240
988,925.0,9_44_24_4242
989,926.0,9_44_24_4247
990,927.0,9_44_24_4247
991,928.0,9_44_24_4251
992,929.0,9_44_24_4252
993,930.0,9_44_24_4255
994,931.0,9_44_24_4260
995,932.0,9_44_24_4260
996,933.0,9_44_24_4263
997,934.0,9_44_24_4268
998,935.0,9_44_24_4268
999,936.0,9_44_24_4271
1000,937.0,9_44_24_4276
1001,938.0,9_44_24_4277
1002,939.0,9_44_24_4280
1003,940.0,9_44_24_4280
1004,941.0,9_44_24_4284
1005,942.0,9_44_24_4288
1006,943.0,9_44_24_4288
1007,944.0,9_44_24_4292
1008,945.0,9_44_24_4297
1009,946.0,9_44_24_4297
1010,947.0,9_44_24_4300
1011,948.0,9_44_24_4305
1012,949.0,9_44_24_4312
1013,950.0,9_44_24_4312
1014,951.0,9_44_24_4313
1015,952.0,9_44_24_4314
1016,953.0,9_44_24_4317
1017,954.0,9_44_24_4318
1018,955.0,9_44_24_4320
1019,956.0,9_44_24_4324
1020,957.0,9_44_24_4325
1021,958.0,9_44_24_4329
1022,959.0,9_44_24_4333
1023,960.0,9_44_24_4334
1024,961.0,9_44_24_4337
1025,962.0,9_44_24_4338
1026,963.0,9_44_24_4341
1027,964.0,9_44_24_4345
1028,965.0,9_44_24_4346
1029,966.0,9_44_24_4349
1030,967.0,9_44_24_4354
1031,968.0,9_44_24_4354
1032,969.0,9_44_24_4357
1033,970.0,9_44_24_4362
1034,971.0,9_44_24_4362
1035,972.0,9_44_24_4365
1036,973.0,9_44_24_4366
1037,974.0,9_44_24_4370
1038,975.0,9_44_24_4374
1039,976.0,9_44_24_4374
1040,977.0,9_44_24_4378
1041,978.0,9_44_24_4382
1042,979.0,9_44_24_4383
1043,980.0,9_44_24_4386
1044,981.0,9_44_24_4387
1045,982.0,9_44_24_4391
1046,983.0,9_44_24_4395
1047,984.0,9_44_24_4396
1048,985.0,9_44_24_4398
1049,986.0,9_44_24_4403
1050,987.0,9_44_24_4403
1051,988.0,9_44_24_4406
1052,989.0,9_44_24_4411
1053,990.0,9_44_24_4412
1054,991.0,9_44_24_4416
1055,992.0,9_44_24_4416
1056,993.0,9_44_24_4419
1057,994.0,9_44_24_4423
1058,995.0,9_44_24_4424
1059,996.0,9_44_24_4427
1060,997.0,9_44_24_4432
1061,998.0,9_44_24_4433
1062,999.0,9_44_24_4436
1063,1000.0,9_44_24_4439
1064,1001.0,9_44_24_4440
1065,1002.0,9_44_24_4443
1066,1003.0,9_44_24_4448
1067,1004.0,9_44_24_4452
1068,1005.0,9_44_24_4456
1069,1006.0,9_44_24_4457
1070,1007.0,9_44_24_4460
1071,1008.0,9_44_24_4464
1072,1009.0,9_44_24_4468
1073,1010.0,9_44_24_4469
1074,1011.0,9_44_24_4472
1075,1012.0,9_44_24_4476
1076,1013.0,9_44_24_4480
1077,1014.0,9_44_24_4481
1078,1015.0,9_44_24_4484
1079,1016.0,9_44_24_4489
1080,1017.0,9_44_24_4493
1081,1018.0,9_44_24_4494
1082,1019.0,9_44_24_4497
1083,1020.0,9_44_24_4501
1084,1021.0,9_44_24_4505
1085,1022.0,9_44_24_4506
1086,1023.0,9_44_24_4509
1087,0.0,9_44_24_4513
1088,1.0,9_44_24_4514
1089,2.0,9_44_24_4515
1090,3.0,9_44_24_4518
1091,4.0,9_44_24_4519
1092,5.0,9_44_24_4522
1093,6.0,9_44_24_4523
1094,7.0,9_44_24_4523
1095,8.0,9_44_24_4525
1096,9.0,9_44_24_4526
1097,10.0,9_44_24_4530
1098,11.0,9_44_24_4532
1099,12.0,9_44_24_4534
1100,13.0,9_44_24_4535
1101,14.0,9_44_24_4538
1102,15.0,9_44_24_4539
1103,16.0,9_44_24_4542
1104,17.0,9_44_24_4543
1105,18.0,9_44_24_4546
1106,19.0,9_44_24_4546
1107,20.0,9_44_24_4551
1108,21.0,9_44_24_4552
1109,22.0,9_44_24_4555
1110,23.0,9_44_24_4555
1111,24.0,9_44_24_4558
1112,25.0,9_44_24_4559
1113,26.0,9_44_24_4563
1114,27.0,9_44_24_4563
1115,28.0,9_44_24_4566
1116,29.0,9_44_24_4568
1117,30.0,9_44_24_4571
1118,31.0,9_44_24_4572
1119,32.0,9_44_24_4574
1120,33.0,9_44_24_4575
1121,34.0,9_44_24_4579
1122,35.0,9_44_24_4580
1123,36.0,9_44_24_4583
1124,37.0,9_44_24_4584
1125,38.0,9_44_24_4587
1126,39.0,9_44_24_4588
1127,40.0,9_44_24_4591
1128,41.0,9_44_24_4592
1129,42.0,9_44_24_4596
1130,43.0,9_44_24_4596
1131,44.0,9_44_24_4599
1132,45.0,9_44_24_4600
1133,46.0,9_44_24_4603
1134,47.0,9_44_24_4604
1135,48.0,9_44_24_4607
1136,49.0,9_44_24_4608
1137,50.0,9_44_24_4612
1138,51.0,9_44_24_4613
1139,52.0,9_44_24_4616
1140,53.0,9_44_24_4616
1141,54.0,9_44_24_4620
1142,55.0,9_44_24_4621
1143,56.0,9_44_24_4624
1144,57.0,9_44_24_4625
1145,58.0,9_44_24_4628
1146,59.0,9_44_24_4632
1147,60.0,9_44_24_4633
1148,61.0,9_44_24_4635
1149,62.0,9_44_24_4636
1150,63.0,9_44_24_4637
1151,64.0,9_44_24_4641
1152,65.0,9_44_24_4642
1153,66.0,9_44_24_4644
1154,67.0,9_44_24_4646
1155,68.0,9_44_24_4648
1156,69.0,9_44_24_4653
1157,70.0,9_44_24_4654
1158,71.0,9_44_24_4657
1159,72.0,9_44_24_4658
1160,73.0,9_44_24_4661
1161,74.0,9_44_24_4662
1162,75.0,9_44_24_4664
1163,76.0,9_44_24_4666
1164,77.0,9_44_24_4669
1165,78.0,9_44_24_4670
1166,79.0,9_44_24_4673
1167,80.0,9_44_24_4675
1168,81.0,9_44_24_4677
1169,82.0,9_44_24_4678
1170,83.0,9_44_24_4682
1171,84.0,9_44_24_4683
1172,85.0,9_44_24_4685
1173,86.0,9_44_24_4687
1174,87.0,9_44_24_4689
1175,88.0,9_44_24_4691
1176,89.0,9_44_24_4693
1177,90.0,9_44_24_4695
1178,91.0,9_44_24_4698
1179,92.0,9_44_24_4699
1180,93.0,9_44_24_4702
1181,94.0,9_44_24_4703
1182,95.0,9_44_24_4706
1183,96.0,9_44_24_4707
1184,97.0,9_44_24_4710
1185,98.0,9_44_24_4711
1186,99.0,9_44_24_4714
1187,100.0,9_44_24_4715
1188,101.0,9_44_24_4719
1189,102.0,9_44_24_4722
1190,103.0,9_44_24_4731
1191,104.0,9_44_24_4733
1192,105.0,9_44_24_4735
1193,106.0,9_44_24_4736
1194,107.0,9_44_24_4737
1195,108.0,9_44_24_4738
1196,109.0,9_44_24_4738
1197,110.0,9_44_24_4742
1198,111.0,9_44_24_4744
1199,112.0,9_44_24_4746
1200,113.0,9_44_24_4751
1201,114.0,9_44_24_4753
1202,115.0,9_44_24_4755
1203,116.0,9_44_24_4759
1204,117.0,9_44_24_4760
1205,118.0,9_44_24_4763
1206,119.0,9_44_24_4764
1207,120.0,9_44_24_4768
1208,121.0,9_44_24_4771
1209,122.0,9_44_24_4772
1210,123.0,9_44_24_4776
1211,124.0,9_44_24_4780
1212,125.0,9_44_24_4781
1213,126.0,9_44_24_4783
1214,127.0,9_44_24_4787
1215,128.0,9_44_24_4788
1216,129.0,9_44_24_4792
1217,130.0,9_44_24_4793
1218,131.0,9_44_24_4796
1219,132.0,9_44_24_4800
1220,133.0,9_44_24_4800
1221,134.0,9_44_24_4804
1222,135.0,9_44_24_4808
1223,136.0,9_44_24_4809
1224,137.0,9_44_24_4812
1225,138.0,9_44_24_4816
1226,139.0,9_44_24_4818
1227,140.0,9_44_24_4820
1228,141.0,9_44_24_4824
1229,142.0,9_44_24_4826
1230,143.0,9_44_24_4829
1231,144.0,9_44_24_4834
1232,145.0,9_44_24_4835
1233,146.0,9_44_24_4837
1234,147.0,9_44_24_4838
1235,148.0,9_44_24_4841
1236,149.0,9_44_24_4845
1237,150.0,9_44_24_4846
1238,151.0,9_44_24_4850
1239,152.0,9_44_24_4850
1240,153.0,9_44_24_4853
1241,154.0,9_44_24_4858
1242,155.0,9_44_24_4859
1243,156.0,9_44_24_4862
1244,157.0,9_44_24_4866
1245,158.0,9_44_24_4867
1246,159.0,9_44_24_4870
1247,160.0,9_44_24_4870
1248,161.0,9_44_24_4873
1249,162.0,9_44_24_4877
1250,163.0,9_44_24_4878
1251,164.0,9_44_24_4882
1252,165.0,9_44_24_4886
1253,166.0,9_44_24_4888
1254,167.0,9_44_24_4890
1255,168.0,9_44_24_4895
1256,169.0,9_44_24_4895
1257,170.0,9_44_24_4898
1258,171.0,9_44_24_4899
1259,172.0,9_44_24_4902
1260,173.0,9_44_24_4907
1261,174.0,9_44_24_4908
1262,175.0,9_44_24_4910
1263,176.0,9_44_24_4915
1264,177.0,9_44_24_4916
1265,178.0,9_44_24_4919
1266,179.0,9_44_24_4923
1267,180.0,9_44_24_4924
1268,181.0,9_44_24_4927
1269,182.0,9_44_24_4929
1270,183.0,9_44_24_4931
1271,184.0,9_44_24_4935
1272,185.0,9_44_24_4937
1273,186.0,9_44_24_4939
1274,187.0,9_44_24_4943
1275,188.0,9_44_24_4944
1276,189.0,9_44_24_4948
1277,190.0,9_44_24_4952
1278,191.0,9_44_24_4953
1279,192.0,9_44_24_4956
1280,193.0,9_44_24_4956
1281,194.0,9_44_24_4959
1282,195.0,9_44_25_4963
1283,196.0,9_44_25_4964
1284,197.0,9_44_25_4968
1285,198.0,9_44_25_4972
1286,199.0,9_44_25_4973
1287,200.0,9_44_25_4976
1288,201.0,9_44_25_4980
1289,202.0,9_44_25_4981
1290,203.0,9_44_25_4984
1291,204.0,9_44_25_4986
1292,205.0,9_44_25_4989
1293,206.0,9_44_25_4993
1294,207.0,9_44_25_4994
1295,208.0,9_44_25_4996
1296,209.0,9_44_25_5000
1297,210.0,9_44_25_5001
1298,211.0,9_44_25_5005
1299,212.0,9_44_25_5009
1300,213.0,9_44_25_5010
1301,214.0,9_44_25_5013
1302,215.0,9_44_25_5014
1303,216.0,9_44_25_5018
1304,217.0,9_44_25_5021
1305,218.0,9_44_25_5023
1306,219.0,9_44_25_5025
1307,220.0,9_44_25_5030
1308,221.0,9_44_25_5032
1309,222.0,9_44_25_5035
1310,223.0,9_44_25_5036
1311,224.0,9_44_25_5037
1312,225.0,9_44_25_5042
1313,226.0,9_44_25_5043
1314,227.0,9_44_25_5046
1315,228.0,9_44_25_5050
1316,229.0,9_44_25_5052
1317,230.0,9_44_25_5054
1318,231.0,9_44_25_5059
1319,232.0,9_44_25_5060
1320,233.0,9_44_25_5063
1321,234.0,9_44_25_5063
1322,235.0,9_44_25_5066
1323,236.0,9_44_25_5071
1324,237.0,9_44_25_5072
1325,238.0,9_44_25_5075
1326,239.0,9_44_25_5078
1327,240.0,9_44_25_5079
1328,241.0,9_44_25_5082
1329,242.0,9_44_25_5087
1330,243.0,9_44_25_5087
1331,244.0,9_44_25_5091
1332,245.0,9_44_25_5091
1333,246.0,9_44_25_5095
1334,247.0,9_44_25_5099
1335,248.0,9_44_25_5099
1336,249.0,9_44_25_5104
1337,250.0,9_44_25_5107
1338,251.0,9_44_25_5108
1339,252.0,9_44_25_5112
1340,253.0,9_44_25_5116
1341,254.0,9_44_25_5117
1342,255.0,9_44_25_5120
1343,256.0,9_44_25_5120
1344,257.0,9_44_25_5123
1345,258.0,9_44_25_5128
1346,259.0,9_44_25_5130
1347,260.0,9_44_25_5136
1348,261.0,9_44_25_5137
1349,262.0,9_44_25_5138
1350,263.0,9_44_25_5140
1351,264.0,9_44_25_5144
1352,265.0,9_44_25_5145
1353,266.0,9_44_25_5148
1354,267.0,9_44_25_5149
1355,268.0,9_44_25_5152
1356,269.0,9_44_25_5156
1357,270.0,9_44_25_5157
1358,271.0,9_44_25_5160
1359,272.0,9_44_25_5165
1360,273.0,9_44_25_5166
1361,274.0,9_44_25_5169
1362,275.0,9_44_25_5173
1363,276.0,9_44_25_5174
1364,277.0,9_44_25_5177
1365,278.0,9_44_25_5178
1366,279.0,9_44_25_5181
1367,280.0,9_44_25_5185
1368,281.0,9_44_25_5186
1369,282.0,9_44_25_5189
1370,283.0,9_44_25_5194
1371,284.0,9_44_25_5195
1372,285.0,9_44_25_5198
1373,286.0,9_44_25_5199
1374,287.0,9_44_25_5201
1375,288.0,9_44_25_5206
1376,289.0,9_44_25_5207
1377,290.0,9_44_25_5210
1378,291.0,9_44_25_5214
1379,292.0,9_44_25_5215
1380,293.0,9_44_25_5218
1381,294.0,9_44_25_5222
1382,295.0,9_44_25_5223
1383,296.0,9_44_25_5226
1384,297.0,9_44_25_5228
1385,298.0,9_44_25_5231
1386,299.0,9_44_25_5234
1387,300.0,9_44_25_5236
1388,301.0,9_44_25_5238
1389,302.0,9_44_25_5242
1390,303.0,9_44_25_5243
1391,304.0,9_44_25_5246
1392,305.0,9_44_25_5251
1393,306.0,9_44_25_5252
1394,307.0,9_44_25_5255
1395,308.0,9_44_25_5258
1396,309.0,9_44_25_5271
1397,310.0,9_44_25_5272
1398,311.0,9_44_25_5273
1399,312.0,9_44_25_5274
1400,313.0,9_44_25_5274
1401,314.0,9_44_25_5275
1402,315.0,9_44_25_5276
1403,316.0,9_44_25_5280
1404,317.0,9_44_25_5280
1405,318.0,9_44_25_5284
1406,319.0,9_44_25_5285
1407,320.0,9_44_25_5288
1408,321.0,9_44_25_5292
1409,322.0,9_44_25_5294
1410,323.0,9_44_25_5296
1411,324.0,9_44_25_5299
1412,325.0,9_44_25_5300
1413,326.0,9_44_25_5304
1414,327.0,9_44_25_5308
1415,328.0,9_44_25_5309
1416,329.0,9_44_25_5312
1417,330.0,9_44_25_5313
1418,331.0,9_44_25_5317
1419,332.0,9_44_25_5341
1420,333.0,9_44_25_5377
1421,334.0,9_44_25_5378
1422,335.0,9_44_25_5378
1423,336.0,9_44_25_5379
1424,337.0,9_44_25_5380
1425,338.0,9_44_25_5380
1426,339.0,9_44_25_5381
1427,340.0,9_44_25_5382
1428,341.0,9_44_25_5383
1429,342.0,9_44_25_5383
1430,343.0,9_44_25_5384
1431,344.0,9_44_25_5385
1432,345.0,9_44_25_5385
1433,346.0,9_44_25_5386
1434,347.0,9_44_25_5387
1435,348.0,9_44_25_5388
1436,349.0,9_44_25_5389
1437,350.0,9_44_25_5390
1438,351.0,9_44_25_5391
1439,352.0,9_44_25_5391
1440,353.0,9_44_25_5392
1441,354.0,9_44_25_5393
1442,355.0,9_44_25_5394
1443,356.0,9_44_25_5394
1444,357.0,9_44_25_5395
1445,358.0,9_44_25_5396
1446,359.0,9_44_25_5396
1447,360.0,9_44_25_5397
1448,361.0,9_44_25_5398
1449,362.0,9_44_25_5399
1450,363.0,9_44_25_5399
1451,364.0,9_44_25_5402
1452,365.0,9_44_25_5407
1453,366.0,9_44_25_5408
1454,367.0,9_44_25_5411
1455,368.0,9_44_25_5415
1456,369.0,9_44_25_5416
1457,370.0,9_44_25_5419
1458,371.0,9_44_25_5421
1459,372.0,9_44_25_5423
1460,373.0,9_44_25_5427
1461,374.0,9_44_25_5428
1462,375.0,9_44_25_5431
1463,376.0,9_44_25_5435
1464,377.0,9_44_25_5436
1465,378.0,9_44_25_5440
1466,379.0,9_44_25_5443
1467,380.0,9_44_25_5444
1468,381.0,9_44_25_5448
1469,382.0,9_44_25_5449
1470,383.0,9_44_25_5451
1471,384.0,9_44_25_5455
1472,385.0,9_44_25_5457
1473,386.0,9_44_25_5460
1474,387.0,9_44_25_5464
1475,388.0,9_44_25_5465
1476,389.0,9_44_25_5468
1477,390.0,9_44_25_5472
1478,391.0,9_44_25_5473
1479,392.0,9_44_25_5476
1480,393.0,9_44_25_5477
1481,394.0,9_44_25_5480
1482,395.0,9_44_25_5485
1483,396.0,9_44_25_5486
1484,397.0,9_44_25_5488
1485,398.0,9_44_25_5492
1486,399.0,9_44_25_5493
1487,400.0,9_44_25_5496
1488,401.0,9_44_25_5501
1489,402.0,9_44_25_5502
1490,403.0,9_44_25_5505
1491,404.0,9_44_25_5506
1492,405.0,9_44_25_5509
1493,406.0,9_44_25_5512
1494,407.0,9_44_25_5514
1495,408.0,9_44_25_5517
1496,409.0,9_44_25_5521
1497,410.0,9_44_25_5523
1498,411.0,9_44_25_5525
1499,412.0,9_44_25_5530
1500,413.0,9_44_25_5531
1501,414.0,9_44_25_5533
1502,415.0,9_44_25_5534
1503,416.0,9_44_25_5538
1504,417.0,9_44_25_5542
1505,418.0,9_44_25_5543
1506,419.0,9_44_25_5546
1507,420.0,9_44_25_5549
1508,421.0,9_44_25_5551
1509,422.0,9_44_25_5554
1510,423.0,9_44_25_5555
1511,424.0,9_44_25_5557
1512,425.0,9_44_25_5562
1513,426.0,9_44_25_5563
1514,427.0,9_44_25_5566
1515,428.0,9_44_25_5570
1516,429.0,9_44_25_5571
1517,430.0,9_44_25_5575
1518,431.0,9_44_25_5578
1519,432.0,9_44_25_5580
1520,433.0,9_44_25_5583
1521,434.0,9_44_25_5584
1522,435.0,9_44_25_5586
1523,436.0,9_44_25_5591
1524,437.0,9_44_25_5592
1525,438.0,9_44_25_5595
1526,439.0,9_44_25_5598
1527,440.0,9_44_25_5600
1528,441.0,9_44_25_5603
1529,442.0,9_44_25_5607
1530,443.0,9_44_25_5608
1531,444.0,9_44_25_5611
1532,445.0,9_44_25_5612
1533,446.0,9_44_25_5615
1534,447.0,9_44_25_5619
1535,448.0,9_44_25_5620
1536,449.0,9_44_25_5623
1537,450.0,9_44_25_5628
1538,451.0,9_44_25_5629
1539,452.0,9_44_25_5632
1540,453.0,9_44_25_5636
1541,454.0,9_44_25_5637
1542,455.0,9_44_25_5640
1543,456.0,9_44_25_5641
1544,457.0,9_44_25_5644
1545,458.0,9_44_25_5649
1546,459.0,9_44_25_5650
1547,460.0,9_44_25_5652
1548,461.0,9_44_25_5656
1549,462.0,9_44_25_5658
1550,463.0,9_44_25_5661
1551,464.0,9_44_25_5664
1552,465.0,9_44_25_5666
1553,466.0,9_44_25_5669
1554,467.0,9_44_25_5671
1555,468.0,9_44_25_5673
1556,469.0,9_44_25_5676
1557,470.0,9_44_25_5677
1558,471.0,9_44_25_5680
1559,472.0,9_44_25_5685
1560,473.0,9_44_25_5686
1561,474.0,9_44_25_5689
1562,475.0,9_44_25_5693
1563,476.0,9_44_25_5694
1564,477.0,9_44_25_5697
1565,478.0,9_44_25_5699
1566,479.0,9_44_25_5702
1567,480.0,9_44_25_5705
1568,481.0,9_44_25_5707
1569,482.0,9_44_25_5710
1570,483.0,9_44_25_5713
1571,484.0,9_44_25_5714
1572,485.0,9_44_25_5717
1573,486.0,9_44_25_5722
1574,487.0,9_44_25_5723
1575,488.0,9_44_25_5726
1576,489.0,9_44_25_5729
1577,490.0,9_44_25_5730
1578,491.0,9_44_25_5734
1579,492.0,9_44_25_5736
1580,493.0,9_44_25_5738
1581,494.0,9_44_25_5743
1582,495.0,9_44_25_5744
1583,496.0,9_44_25_5747
1584,497.0,9_44_25_5748
1585,498.0,9_44_25_5750
1586,499.0,9_44_25_5755
1587,500.0,9_44_25_5756
1588,501.0,9_44_25_5758
1589,502.0,9_44_25_5763
1590,503.0,9_44_25_5764
1591,504.0,9_44_25_5767
1592,505.0,9_44_25_5771
1593,506.0,9_44_25_5772
1594,507.0,9_44_25_5775
1595,508.0,9_44_25_5777
1596,509.0,9_44_25_5779
1597,510.0,9_44_25_5783
1598,511.0,9_44_25_5785
1599,512.0,9_44_25_5788
1600,513.0,9_44_25_5791
1601,514.0,9_44_25_5793
1602,515.0,9_44_25_5796
1603,516.0,9_44_25_5799
1604,517.0,9_44_25_5801
1605,518.0,9_44_25_5804
1606,519.0,9_44_25_5805
1607,520.0,9_44_25_5807
1608,521.0,9_44_25_5812
1609,522.0,9_44_25_5813
1610,523.0,9_44_25_5815
1611,524.0,9_44_25_5820
1612,525.0,9_44_25_5822
1613,526.0,9_44_25_5824
1614,527.0,9_44_25_5828
1615,528.0,9_44_25_5831
1616,529.0,9_44_25_5832
1617,530.0,9_44_25_5834
1618,531.0,9_44_25_5837
1619,532.0,9_44_25_5840
1620,533.0,9_44_25_5842
1621,534.0,9_44_25_5845
1622,535.0,9_44_25_5848
1623,536.0,9_44_25_5849
1624,537.0,9_44_25_5853
1625,538.0,9_44_25_5857
1626,539.0,9_44_25_5858
1627,540.0,9_44_25_5860
1628,541.0,9_44_25_5862
1629,542.0,9_44_25_5865
1630,543.0,9_44_25_5870
1631,544.0,9_44_25_5871
1632,545.0,9_44_25_5873
1633,546.0,9_44_25_5877
1634,547.0,9_44_25_5879
1635,548.0,9_44_25_5882
1636,549.0,9_44_25_5885
1637,550.0,9_44_25_5886
1638,551.0,9_44_25_5890
1639,552.0,9_44_25_5891
1640,553.0,9_44_25_5894
1641,554.0,9_44_25_5898
1642,555.0,9_44_25_5899
1643,556.0,9_44_25_5902
1644,557.0,9_44_25_5906
1645,558.0,9_44_25_5907
1646,559.0,9_44_25_5910
1647,560.0,9_44_25_5911
1648,561.0,9_44_25_5915
1649,562.0,9_44_25_5918
1650,563.0,9_44_25_5919
1651,564.0,9_44_25_5922
1652,565.0,9_44_25_5927
1653,566.0,9_44_25_5929
1654,567.0,9_44_25_5930
1655,568.0,9_44_25_5935
1656,569.0,9_44_25_5936
1657,570.0,9_44_25_5938
1658,571.0,9_44_25_5940
1659,572.0,9_44_25_5943
1660,573.0,9_44_25_5947
1661,574.0,9_44_25_5948
1662,575.0,9_44_25_5951
1663,576.0,9_44_25_5955
1664,577.0,9_44_25_5956
1665,578.0,9_44_25_5959
1666,579.0,9_44_26_5964
1667,580.0,9_44_26_5965
1668,581.0,9_44_26_5967
1669,582.0,9_44_26_5968
1670,583.0,9_44_26_5971
1671,584.0,9_44_26_5976
1672,585.0,9_44_26_5977
1673,586.0,9_44_26_5980
1674,587.0,9_44_26_5984
1675,588.0,9_44_26_5985
1676,589.0,9_44_26_5988
1677,590.0,9_44_26_5992
1678,591.0,9_44_26_5993
1679,592.0,9_44_26_5996
1680,593.0,9_44_26_5998
1681,594.0,9_44_26_6000
1682,595.0,9_44_26_6005
1683,596.0,9_44_26_6006
1684,597.0,9_44_26_6009
1685,598.0,9_44_26_6013
1686,599.0,9_44_26_6014
1687,600.0,9_44_26_6017
1688,601.0,9_44_26_6021
1689,602.0,9_44_26_6022
1690,603.0,9_44_26_6025
1691,604.0,9_44_26_6027
1692,605.0,9_44_26_6029
1693,606.0,9_44_26_6033
1694,607.0,9_44_26_6034
1695,608.0,9_44_26_6038
1696,609.0,9_44_26_6041
1697,610.0,9_44_26_6042
1698,611.0,9_44_26_6045
1699,612.0,9_44_26_6049
1700,613.0,9_44_26_6051
1701,614.0,9_44_26_6054
1702,615.0,9_44_26_6055
1703,616.0,9_44_26_6057
1704,617.0,9_44_26_6062
1705,618.0,9_44_26_6063
1706,619.0,9_44_26_6066
1707,620.0,9_44_26_6070
1708,621.0,9_44_26_6071
1709,622.0,9_44_26_6074
1710,623.0,9_44_26_6078
1711,624.0,9_44_26_6079
1712,625.0,9_44_26_6082
1713,626.0,9_44_26_6084
1714,627.0,9_44_26_6086
1715,628.0,9_44_26_6091
1716,629.0,9_44_26_6092
1717,630.0,9_44_26_6095
1718,631.0,9_44_26_6098
1719,632.0,9_44_26_6099
1720,633.0,9_44_26_6103
1721,634.0,9_44_26_6104
1722,635.0,9_44_26_6107
1723,636.0,9_44_26_6111
1724,637.0,9_44_26_6113
1725,638.0,9_44_26_6115
1726,639.0,9_44_26_6119
1727,640.0,9_44_26_6120
1728,641.0,9_44_26_6123
1729,642.0,9_44_26_6128
1730,643.0,9_44_26_6129
1731,644.0,9_44_26_6132
1732,645.0,9_44_26_6133
1733,646.0,9_44_26_6135
1734,647.0,9_44_26_6140
1735,648.0,9_44_26_6141
1736,649.0,9_44_26_6144
1737,650.0,9_44_26_6147
1738,651.0,9_44_26_6149
1739,652.0,9_44_26_6152
1740,653.0,9_44_26_6155
1741,654.0,9_44_26_6157
1742,655.0,9_44_26_6160
1743,656.0,9_44_26_6161
1744,657.0,9_44_26_6164
1745,658.0,9_44_26_6168
1746,659.0,9_44_26_6169
1747,660.0,9_44_26_6173
1748,661.0,9_44_26_6176
1749,662.0,9_44_26_6177
1750,663.0,9_44_26_6181
1751,664.0,9_44_26_6185
1752,665.0,9_44_26_6186
1753,666.0,9_44_26_6189
1754,667.0,9_44_26_6190
1755,668.0,9_44_26_6193
1756,669.0,9_44_26_6197
1757,670.0,9_44_26_6198
1758,671.0,9_44_26_6202
1759,672.0,9_44_26_6205
1760,673.0,9_44_26_6207
1761,674.0,9_44_26_6209
1762,675.0,9_44_26_6214
1763,676.0,9_44_26_6215
1764,677.0,9_44_26_6217
1765,678.0,9_44_26_6218
1766,679.0,9_44_26_6221
1767,680.0,9_44_26_6226
1768,681.0,9_44_26_6228
1769,682.0,9_44_26_6230
1770,683.0,9_44_26_6234
1771,684.0,9_44_26_6236
1772,685.0,9_44_26_6238
1773,686.0,9_44_26_6242
1774,687.0,9_44_26_6243
1775,688.0,9_44_26_6246
1776,689.0,9_44_26_6248
1777,690.0,9_44_26_6250
1778,691.0,9_44_26_6255
1779,692.0,9_44_26_6256
1780,693.0,9_44_26_6299
1781,694.0,9_44_26_6335
1782,695.0,9_44_26_6336
1783,696.0,9_44_26_6338
1784,697.0,9_44_26_6339
1785,698.0,9_44_26_6340
1786,699.0,9_44_26_6340
1787,700.0,9_44_26_6341
1788,701.0,9_44_26_6342
1789,702.0,9_44_26_6343
1790,703.0,9_44_26_6344
1791,704.0,9_44_26_6345
1792,705.0,9_44_26_6346
1793,706.0,9_44_26_6347
1794,707.0,9_44_26_6349
1795,708.0,9_44_26_6351
1796,709.0,9_44_26_6352
1797,710.0,9_44_26_6353
1798,711.0,9_44_26_6354
1799,712.0,9_44_26_6355
1800,713.0,9_44_26_6356
1801,714.0,9_44_26_6357
1802,715.0,9_44_26_6358
1803,716.0,9_44_26_6358
1804,717.0,9_44_26_6359
1805,718.0,9_44_26_6360
1806,719.0,9_44_26_6361
1807,720.0,9_44_26_6362
1808,721.0,9_44_26_6363
1809,722.0,9_44_26_6364
1810,723.0,9_44_26_6365
1811,724.0,9_44_26_6366
1812,725.0,9_44_26_6367
1813,726.0,9_44_26_6368
1814,727.0,9_44_26_6369
1815,728.0,9_44_26_6370
1816,729.0,9_44_26_6371
1817,730.0,9_44_26_6372
1818,731.0,9_44_26_6373
1819,732.0,9_44_26_6374
1820,733.0,9_44_26_6375
1821,734.0,9_44_26_6376
1822,735.0,9_44_26_6377
1823,736.0,9_44_26_6378
1824,737.0,9_44_26_6378
1825,738.0,9_44_26_6379
1826,739.0,9_44_26_6380
1827,740.0,9_44_26_6381
1828,741.0,9_44_26_6382
1829,742.0,9_44_26_6385
1830,743.0,9_44_26_6390
1831,744.0,9_44_26_6391
1832,745.0,9_44_26_6394
1833,746.0,9_44_26_6397
1834,747.0,9_44_26_6399
1835,748.0,9_44_26_6402
1836,749.0,9_44_26_6406
1837,750.0,9_44_26_6407
1838,751.0,9_44_26_6410
1839,752.0,9_44_26_6411
1840,753.0,9_44_26_6414
1841,754.0,9_44_26_6418
1842,755.0,9_44_26_6419
1843,756.0,9_44_26_6422
1844,757.0,9_44_26_6427
1845,758.0,9_44_26_6429
1846,759.0,9_44_26_6431
1847,760.0,9_44_26_6434
1848,761.0,9_44_26_6436
1849,762.0,9_44_26_6439
1850,763.0,9_44_26_6440
1851,764.0,9_44_26_6443
1852,765.0,9_44_26_6447
1853,766.0,9_44_26_6448
1854,767.0,9_44_26_6451
1855,768.0,9_44_26_6455
1856,769.0,9_44_26_6456
1857,770.0,9_44_26_6459
1858,771.0,9_44_26_6461
1859,772.0,9_44_26_6463
1860,773.0,9_44_26_6467
1861,774.0,9_44_26_6468
1862,775.0,9_44_26_6471
1863,776.0,9_44_26_6476
1864,777.0,9_44_26_6477
1865,778.0,9_44_26_6479
1866,779.0,9_44_26_6483
1867,780.0,9_44_26_6484
1868,781.0,9_44_26_6487
1869,782.0,9_44_26_6489
1870,783.0,9_44_26_6492
1871,784.0,9_44_26_6496
1872,785.0,9_44_26_6497
1873,786.0,9_44_26_6500
1874,787.0,9_44_26_6504
1875,788.0,9_44_26_6506
1876,789.0,9_44_26_6508
1877,790.0,9_44_26_6512
1878,791.0,9_44_26_6513
1879,792.0,9_44_26_6517
1880,793.0,9_44_26_6518
1881,794.0,9_44_26_6520
1882,795.0,9_44_26_6525
1883,796.0,9_44_26_6527
1884,797.0,9_44_26_6528
1885,798.0,9_44_26_6533
1886,799.0,9_44_26_6534
1887,800.0,9_44_26_6537
1888,801.0,9_44_26_6541
1889,802.0,9_44_26_6543
1890,803.0,9_44_26_6545
1891,804.0,9_44_26_6546
1892,805.0,9_44_26_6550
1893,806.0,9_44_26_6553
1894,807.0,9_44_26_6555
1895,808.0,9_44_26_6557
1896,809.0,9_44_26_6562
1897,810.0,9_44_26_6563
1898,811.0,9_44_26_6565
1899,812.0,9_44_26_6570
1900,813.0,9_44_26_6571
1901,814.0,9_44_26_6573
1902,815.0,9_44_26_6575
1903,816.0,9_44_26_6578
1904,817.0,9_44_26_6582
1905,818.0,9_44_26_6583
1906,819.0,9_44_26_6586
1907,820.0,9_44_26_6590
1908,821.0,9_44_26_6591
1909,822.0,9_44_26_6594
1910,823.0,9_44_26_6598
1911,824.0,9_44_26_6599
1912,825.0,9_44_26_6603
1913,826.0,9_44_26_6604
1914,827.0,9_44_26_6606
1915,828.0,9_44_26_6611
1916,829.0,9_44_26_6613
1917,830.0,9_44_26_6615
1918,831.0,9_44_26_6619
1919,832.0,9_44_26_6620
1920,833.0,9_44_26_6622
1921,834.0,9_44_26_6624
1922,835.0,9_44_26_6627
1923,836.0,9_44_26_6631
1924,837.0,9_44_26_6632
1925,838.0,9_44_26_6635
1926,839.0,9_44_26_6640
1927,840.0,9_44_26_6641
1928,841.0,9_44_26_6644
1929,842.0,9_44_26_6648
1930,843.0,9_44_26_6650
1931,844.0,9_44_26_6652
1932,845.0,9_44_26_6652
1933,846.0,9_44_26_6656
1934,847.0,9_44_26_6660
1935,848.0,9_44_26_6662
1936,849.0,9_44_26_6664
1937,850.0,9_44_26_6667
1938,851.0,9_44_26_6669
1939,852.0,9_44_26_6672
1940,853.0,9_44_26_6677
1941,854.0,9_44_26_6679
1942,855.0,9_44_26_6680
1943,856.0,9_44_26_6681
1944,857.0,9_44_26_6684
1945,858.0,9_44_26_6689
1946,859.0,9_44_26_6690
1947,860.0,9_44_26_6692
1948,861.0,9_44_26_6697
1949,862.0,9_44_26_6698
1950,863.0,9_44_26_6701
1951,864.0,9_44_26_6704
1952,865.0,9_44_26_6706
1953,866.0,9_44_26_6709
1954,867.0,9_44_26_6710
1955,868.0,9_44_26_6713
1956,869.0,9_44_26_6717
1957,870.0,9_44_26_6719
1958,871.0,9_44_26_6721
1959,872.0,9_44_26_6726
1960,873.0,9_44_26_6728
1961,874.0,9_44_26_6729
1962,875.0,9_44_26_6733
1963,876.0,9_44_26_6735
1964,877.0,9_44_26_6738
1965,878.0,9_44_26_6740
1966,879.0,9_44_26_6742
1967,880.0,9_44_26_6746
1968,881.0,9_44_26_6748
1969,882.0,9_44_26_6750
1970,883.0,9_44_26_6754
1971,884.0,9_44_26_6756
1972,885.0,9_44_26_6758
1973,886.0,9_44_26_6762
1974,887.0,9_44_26_6764
1975,888.0,9_44_26_6766
1976,889.0,9_44_26_6767
1977,890.0,9_44_26_6771
1978,891.0,9_44_26_6774
1979,892.0,9_44_26_6776
1980,893.0,9_44_26_6779
1981,894.0,9_44_26_6782
1982,895.0,9_44_26_6784
1983,896.0,9_44_26_6787
1984,897.0,9_44_26_6788
1985,898.0,9_44_26_6790
1986,899.0,9_44_26_6795
1987,900.0,9_44_26_6797
1988,901.0,9_44_26_6799
1989,902.0,9_44_26_6803
1990,903.0,9_44_26_6805
1991,904.0,9_44_26_6807
1992,905.0,9_44_26_6812
1993,906.0,9_44_26_6813
1994,907.0,9_44_26_6815
1995,908.0,9_44_26_6817
1996,909.0,9_44_26_6820
1997,910.0,9_44_26_6823
1998,911.0,9_44_26_6824
1999,912.0,9_44_26_6828
2000,913.0,9_44_26_6832
2001,914.0,9_44_26_6835
2002,915.0,9_44_26_6836
2003,916.0,9_44_26_6840
2004,917.0,9_44_26_6842
2005,918.0,9_44_26_6844
2006,919.0,9_44_26_6845
2007,920.0,9_44_26_6848
2008,921.0,9_44_26_6852
2009,922.0,9_44_26_6853
2010,923.0,9_44_26_6857
2011,924.0,9_44_26_6860
2012,925.0,9_44_26_6861
2013,926.0,9_44_26_6864
2014,927.0,9_44_26_6869
2015,928.0,9_44_26_6870
2016,929.0,9_44_26_6872
2017,930.0,9_44_26_6874
2018,931.0,9_44_26_6877
2019,932.0,9_44_26_6882
2020,933.0,9_44_26_6883
2021,934.0,9_44_26_6885
2022,935.0,9_44_26_6890
2023,936.0,9_44_26_6891
2024,937.0,9_44_26_6893
2025,938.0,9_44_26_6898
2026,939.0,9_44_26_6900
2027,940.0,9_44_26_6901
2028,941.0,9_44_26_6903
2029,942.0,9_44_26_6906
2030,943.0,9_44_26_6910
2031,944.0,9_44_26_6911
2032,945.0,9_44_26_6914
2033,946.0,9_44_26_6918
2034,947.0,9_44_26_6919
2035,948.0,9_44_26_6921
2036,949.0,9_44_26_6926
2037,950.0,9_44_26_6929
2038,951.0,9_44_26_6931
2039,952.0,9_44_26_6932
2040,953.0,9_44_26_6934
2041,954.0,9_44_26_6939
2042,955.0,9_44_26_6940
2043,956.0,9_44_26_6942
2044,957.0,9_44_26_6946
2045,958.0,9_44_26_6948
2046,959.0,9_44_26_6951
2047,960.0,9_44_26_6955
2048,961.0,9_44_26_6956
2049,962.0,9_44_26_6958
2050,963.0,9_44_26_6960
2051,964.0,9_44_27_6963
2052,965.0,9_44_27_6967
2053,966.0,9_44_27_6969
2054,967.0,9_44_27_6971
2055,968.0,9_44_27_6976
2056,969.0,9_44_27_6977
2057,970.0,9_44_27_6980
2058,971.0,9_44_27_6981
2059,972.0,9_44_27_6984
2060,973.0,9_44_27_6987
2061,974.0,9_44_27_6988
2062,975.0,9_44_27_6991
2063,976.0,9_44_27_6996
2064,977.0,9_44_27_6997
2065,978.0,9_44_27_7000
2066,979.0,9_44_27_7004
2067,980.0,9_44_27_7005
2068,981.0,9_44_27_7008
2069,982.0,9_44_27_7009
2070,983.0,9_44_27_7013
2071,984.0,9_44_27_7016
2072,985.0,9_44_27_7018
2073,986.0,9_44_27_7020
2074,987.0,9_44_27_7024
2075,988.0,9_44_27_7025
2076,989.0,9_44_27_7029
2077,990.0,9_44_27_7033
2078,991.0,9_44_27_7036
2079,992.0,9_44_27_7037
2080,993.0,9_44_27_7038
2081,994.0,9_44_27_7041
2082,995.0,9_44_27_7044
2083,996.0,9_44_27_7046
2084,997.0,9_44_27_7049
2085,998.0,9_44_27_7053
2086,999.0,9_44_27_7055
2087,1000.0,9_44_27_7057
2088,1001.0,9_44_27_7061
2089,1002.0,9_44_27_7065
2090,1003.0,9_44_27_7068
2091,1004.0,9_44_27_7070
2092,1005.0,9_44_27_7074
2093,1006.0,9_44_27_7078
2094,1007.0,9_44_27_7079
2095,1008.0,9_44_27_7081
2096,1009.0,9_44_27_7086
2097,1010.0,9_44_27_7090
2098,1011.0,9_44_27_7091
2099,1012.0,9_44_27_7094
2100,1013.0,9_44_27_7099
2101,1014.0,9_44_27_7102
2102,1015.0,9_44_27_7104
2103,1016.0,9_44_27_7106
2104,1017.0,9_44_27_7111
2105,1018.0,9_44_27_7114
2106,1019.0,9_44_27_7118
2107,1020.0,9_44_27_7120
2108,1021.0,9_44_27_7122
2109,1022.0,9_44_27_7127
2110,1023.0,9_44_27_7131
2111,0.0,9_44_27_7132
2112,1.0,9_44_27_7134
2113,2.0,9_44_27_7135
2114,3.0,9_44_27_7136
2115,4.0,9_44_27_7137
2116,5.0,9_44_27_7139
2117,6.0,9_44_27_7140
2118,7.0,9_44_27_7143
2119,8.0,9_44_27_7144
2120,9.0,9_44_27_7146
2121,10.0,9_44_27_7147
2122,11.0,9_44_27_7148
2123,12.0,9_44_27_7151
2124,13.0,9_44_27_7153
2125,14.0,9_44_27_7155
2126,15.0,9_44_27_7156
2127,16.0,9_44_27_7160
2128,17.0,9_44_27_7161
2129,18.0,9_44_27_7164
2130,19.0,9_44_27_7165
2131,20.0,9_44_27_7167
2132,21.0,9_44_27_7169
2133,22.0,9_44_27_7172
2134,23.0,9_44_27_7173
2135,24.0,9_44_27_7175
2136,25.0,9_44_27_7177
2137,26.0,9_44_27_7180
2138,27.0,9_44_27_7184
2139,28.0,9_44_27_7186
2140,29.0,9_44_27_7188
2141,30.0,9_44_27_7189
2142,31.0,9_44_27_7193
2143,32.0,9_44_27_7195
2144,33.0,9_44_27_7196
2145,34.0,9_44_27_7197
2146,35.0,9_44_27_7200
2147,36.0,9_44_27_7202
2148,37.0,9_44_27_7205
2149,38.0,9_44_27_7206
2150,39.0,9_44_27_7208
2151,40.0,9_44_27_7210
2152,41.0,9_44_27_7213
2153,42.0,9_44_27_7215
2154,43.0,9_44_27_7217
2155,44.0,9_44_27_7218
2156,45.0,9_44_27_7221
2157,46.0,9_44_27_7222
2158,47.0,9_44_27_7225
2159,48.0,9_44_27_7227
2160,49.0,9_44_27_7229
2161,50.0,9_44_27_7231
2162,51.0,9_44_27_7233
2163,52.0,9_44_27_7235
2164,53.0,9_44_27_7237
2165,54.0,9_44_27_7239
2166,55.0,9_44_27_7241
2167,56.0,9_44_27_7243
2168,57.0,9_44_27_7246
2169,58.0,9_44_27_7248
2170,59.0,9_44_27_7250
2171,60.0,9_44_27_7252
2172,61.0,9_44_27_7254
2173,62.0,9_44_27_7255
2174,63.0,9_44_27_7257
2175,64.0,9_44_27_7259
2176,65.0,9_44_27_7261
2177,66.0,9_44_27_7263
2178,67.0,9_44_27_7266
2179,68.0,9_44_27_7268
2180,69.0,9_44_27_7270
2181,70.0,9_44_27_7272
2182,71.0,9_44_27_7274
2183,72.0,9_44_27_7275
2184,73.0,9_44_27_7279
2185,74.0,9_44_27_7280
2186,75.0,9_44_27_7283
2187,76.0,9_44_27_7285
2188,77.0,9_44_27_7287
2189,78.0,9_44_27_7288
2190,79.0,9_44_27_7291
2191,80.0,9_44_27_7292
2192,81.0,9_44_27_7294
2193,82.0,9_44_27_7296
2194,83.0,9_44_27_7299
2195,84.0,9_44_27_7301
2196,85.0,9_44_27_7303
2197,86.0,9_44_27_7305
2198,87.0,9_44_27_7307
2199,88.0,9_44_27_7311
2200,89.0,9_44_27_7312
2201,90.0,9_44_27_7315
2202,91.0,9_44_27_7317
2203,92.0,9_44_27_7319
2204,93.0,9_44_27_7321
2205,94.0,9_44_27_7323
2206,95.0,9_44_27_7325
2207,96.0,9_44_27_7327
2208,97.0,9_44_27_7329
2209,98.0,9_44_27_7331
2210,99.0,9_44_27_7333
2211,100.0,9_44_27_7336
2212,101.0,9_44_27_7338
2213,102.0,9_44_27_7340
2214,103.0,9_44_27_7343
2215,104.0,9_44_27_7345
2216,105.0,9_44_27_7348
2217,106.0,9_44_27_7352
2218,107.0,9_44_27_7354
2219,108.0,9_44_27_7356
2220,109.0,9_44_27_7357
2221,110.0,9_44_27_7360
2222,111.0,9_44_27_7365
2223,112.0,9_44_27_7367
2224,113.0,9_44_27_7369
2225,114.0,9_44_27_7372
2226,115.0,9_44_27_7374
2227,116.0,9_44_27_7376
2228,117.0,9_44_27_7381
2229,118.0,9_44_27_7383
2230,119.0,9_44_27_7384
2231,120.0,9_44_27_7387
2232,121.0,9_44_27_7389
2233,122.0,9_44_27_7393
2234,123.0,9_44_27_7394
2235,124.0,9_44_27_7397
2236,125.0,9_44_27_7402
2237,126.0,9_44_27_7403
2238,127.0,9_44_27_7406
2239,128.0,9_44_27_7409
2240,129.0,9_44_27_7411
2241,130.0,9_44_27_7413
2242,131.0,9_44_27_7415
2243,132.0,9_44_27_7418
2244,133.0,9_44_27_7422
2245,134.0,9_44_27_7423
2246,135.0,9_44_27_7426
2247,136.0,9_44_27_7430
2248,137.0,9_44_27_7432
2249,138.0,9_44_27_7434
2250,139.0,9_44_27_7436
2251,140.0,9_44_27_7438
2252,141.0,9_44_27_7442
2253,142.0,9_44_27_7444
2254,143.0,9_44_27_7446
2255,144.0,9_44_27_7451
2256,145.0,9_44_27_7452
2257,146.0,9_44_27_7455
2258,147.0,9_44_27_7458
2259,148.0,9_44_27_7460
2260,149.0,9_44_27_7463
2261,150.0,9_44_27_7465
2262,151.0,9_44_27_7467
2263,152.0,9_44_27_7471
2264,153.0,9_44_27_7472
2265,154.0,9_44_27_7475
2266,155.0,9_44_27_7479
2267,156.0,9_44_27_7480
2268,157.0,9_44_27_7484
2269,158.0,9_44_27_7488
2270,159.0,9_44_27_7489
2271,160.0,9_44_27_7491
2272,161.0,9_44_27_7493
2273,162.0,9_44_27_7495
2274,163.0,9_44_27_7499
2275,164.0,9_44_27_7501
2276,165.0,9_44_27_7503
2277,166.0,9_44_27_7508
2278,167.0,9_44_27_7510
2279,168.0,9_44_27_7512
2280,169.0,9_44_27_7516
2281,170.0,9_44_27_7518
2282,171.0,9_44_27_7520
2283,172.0,9_44_27_7521
2284,173.0,9_44_27_7524
2285,174.0,9_44_27_7528
2286,175.0,9_44_27_7530
2287,176.0,9_44_27_7532
2288,177.0,9_44_27_7536
2289,178.0,9_44_27_7538
2290,179.0,9_44_27_7540
2291,180.0,9_44_27_7544
2292,181.0,9_44_27_7546
2293,182.0,9_44_27_7548
2294,183.0,9_44_27_7550
2295,184.0,9_44_27_7553
2296,185.0,9_44_27_7557
2297,186.0,9_44_27_7559
2298,187.0,9_44_27_7561
2299,188.0,9_44_27_7565
2300,189.0,9_44_27_7567
2301,190.0,9_44_27_7569
2302,191.0,9_44_27_7574
2303,192.0,9_44_27_7575
2304,193.0,9_44_27_7577
2305,194.0,9_44_27_7579
2306,195.0,9_44_27_7581
2307,196.0,9_44_27_7585
2308,197.0,9_44_27_7587
2309,198.0,9_44_27_7590
2310,199.0,9_44_27_7594
2311,200.0,9_44_27_7595
2312,201.0,9_44_27_7598
2313,202.0,9_44_27_7599
2314,203.0,9_44_27_7602
2315,204.0,9_44_27_7606
2316,205.0,9_44_27_7608
2317,206.0,9_44_27_7610
2318,207.0,9_44_27_7615
2319,208.0,9_44_27_7616
2320,209.0,9_44_27_7618
2321,210.0,9_44_27_7622
2322,211.0,9_44_27_7624
2323,212.0,9_44_27_7626
2324,213.0,9_44_27_7628
2325,214.0,9_44_27_7631
2326,215.0,9_44_27_7635
2327,216.0,9_44_27_7637
2328,217.0,9_44_27_7638
2329,218.0,9_44_27_7643
2330,219.0,9_44_27_7644
2331,220.0,9_44_27_7646
2332,221.0,9_44_27_7651
2333,222.0,9_44_27_7653
2334,223.0,9_44_27_7655
2335,224.0,9_44_27_7656
2336,225.0,9_44_27_7660
2337,226.0,9_44_27_7663
2338,227.0,9_44_27_7665
2339,228.0,9_44_27_7667
2340,229.0,9_44_27_7672
2341,230.0,9_44_27_7673
2342,231.0,9_44_27_7675
2343,232.0,9_44_27_7679
2344,233.0,9_44_27_7681
2345,234.0,9_44_27_7683
2346,235.0,9_44_27_7685
2347,236.0,9_44_27_7688
2348,237.0,9_44_27_7692
2349,238.0,9_44_27_7694
2350,239.0,9_44_27_7696
2351,240.0,9_44_27_7700
2352,241.0,9_44_27_7702
2353,242.0,9_44_27_7705
2354,243.0,9_44_27_7709
2355,244.0,9_44_27_7710
2356,245.0,9_44_27_7713
2357,246.0,9_44_27_7715
2358,247.0,9_44_27_7716
2359,248.0,9_44_27_7721
2360,249.0,9_44_27_7723
2361,250.0,9_44_27_7725
2362,251.0,9_44_27_7729
2363,252.0,9_44_27_7731
2364,253.0,9_44_27_7733
2365,254.0,9_44_27_7737
2366,255.0,9_44_27_7738
2367,256.0,9_44_27_7742
2368,257.0,9_44_27_7743
2369,258.0,9_44_27_7746
2370,259.0,9_44_27_7749
2371,260.0,9_44_27_7751
2372,261.0,9_44_27_7754
2373,262.0,9_44_27_7758
2374,263.0,9_44_27_7759
2375,264.0,9_44_27_7761
2376,265.0,9_44_27_7766
2377,266.0,9_44_27_7768
2378,267.0,9_44_27_7770
2379,268.0,9_44_27_7772
2380,269.0,9_44_27_7774
2381,270.0,9_44_27_7778
2382,271.0,9_44_27_7779
2383,272.0,9_44_27_7782
2384,273.0,9_44_27_7786
2385,274.0,9_44_27_7788
2386,275.0,9_44_27_7790
2387,276.0,9_44_27_7792
2388,277.0,9_44_27_7794
2389,278.0,9_44_27_7798
2390,279.0,9_44_27_7800
2391,280.0,9_44_27_7802
2392,281.0,9_44_27_7807
2393,282.0,9_44_27_7809
2394,283.0,9_44_27_7811
2395,284.0,9_44_27_7815
2396,285.0,9_44_27_7816
2397,286.0,9_44_27_7819
2398,287.0,9_44_27_7820
2399,288.0,9_44_27_7823
2400,289.0,9_44_27_7827
2401,290.0,9_44_27_7829
2402,291.0,9_44_27_7832
2403,292.0,9_44_27_7836
2404,293.0,9_44_27_7837
2405,294.0,9_44_27_7839
2406,295.0,9_44_27_7843
2407,296.0,9_44_27_7845
2408,297.0,9_44_27_7848
2409,298.0,9_44_27_7850
2410,299.0,9_44_27_7852
2411,300.0,9_44_27_7856
2412,301.0,9_44_27_7857
2413,302.0,9_44_27_7860
2414,303.0,9_44_27_7864
2415,304.0,9_44_27_7866
2416,305.0,9_44_27_7868
2417,306.0,9_44_27_7872
2418,307.0,9_44_27_7874
2419,308.0,9_44_27_7876
2420,309.0,9_44_27_7878
2421,310.0,9_44_27_7881
2422,311.0,9_44_27_7885
2423,312.0,9_44_27_7886
2424,313.0,9_44_27_7888
2425,314.0,9_44_27_7892
2426,315.0,9_44_27_7894
2427,316.0,9_44_27_7897
2428,317.0,9_44_27_7901
2429,318.0,9_44_27_7904
2430,319.0,9_44_27_7905
2431,320.0,9_44_27_7906
2432,321.0,9_44_27_7909
2433,322.0,9_44_27_7913
2434,323.0,9_44_27_7915
2435,324.0,9_44_27_7917
2436,325.0,9_44_27_7921
2437,326.0,9_44_27_7923
2438,327.0,9_44_27_7926
2439,328.0,9_44_27_7929
2440,329.0,9_44_27_7932
2441,330.0,9_44_27_7934
2442,331.0,9_44_27_7936
2443,332.0,9_44_27_7938
2444,333.0,9_44_27_7942
2445,334.0,9_44_27_7943
2446,335.0,9_44_27_7946
2447,336.0,9_44_27_7950
2448,337.0,9_44_27_7953
2449,338.0,9_44_27_7954
2450,339.0,9_44_27_7955
2451,340.0,9_44_27_7958
2452,341.0,9_44_27_7962
2453,342.0,9_44_28_7964
2454,343.0,9_44_28_7967
2455,344.0,9_44_28_7971
2456,345.0,9_44_28_7972
2457,346.0,9_44_28_7975
2458,347.0,9_44_28_7979
2459,348.0,9_44_28_7980
2460,349.0,9_44_28_7983
2461,350.0,9_44_28_7985
2462,351.0,9_44_28_7987
2463,352.0,9_44_28_7991
2464,353.0,9_44_28_7993
2465,354.0,9_44_28_7995
2466,355.0,9_44_28_7999
2467,356.0,9_44_28_8002
2468,357.0,9_44_28_8003
2469,358.0,9_44_28_8008
2470,359.0,9_44_28_8010
2471,360.0,9_44_28_8011
2472,361.0,9_44_28_8012
2473,362.0,9_44_28_8016
2474,363.0,9_44_28_8020
2475,364.0,9_44_28_8022
2476,365.0,9_44_28_8024
2477,366.0,9_44_28_8028
2478,367.0,9_44_28_8030
2479,368.0,9_44_28_8032
2480,369.0,9_44_28_8036
2481,370.0,9_44_28_8038
2482,371.0,9_44_28_8040
2483,372.0,9_44_28_8043
2484,373.0,9_44_28_8044
2485,374.0,9_44_28_8048
2486,375.0,9_44_28_8051
2487,376.0,9_44_28_8052
2488,377.0,9_44_28_8057
2489,378.0,9_44_28_8059
2490,379.0,9_44_28_8060
2491,380.0,9_44_28_8065
2492,381.0,9_44_28_8067
2493,382.0,9_44_28_8068
2494,383.0,9_44_28_8070
2495,384.0,9_44_28_8073
2496,385.0,9_44_28_8077
2497,386.0,9_44_28_8079
2498,387.0,9_44_28_8081
2499,388.0,9_44_28_8085
2500,389.0,9_44_28_8087
2501,390.0,9_44_28_8090
2502,391.0,9_44_28_8094
2503,392.0,9_44_28_8095
2504,393.0,9_44_28_8098
2505,394.0,9_44_28_8099
2506,395.0,9_44_28_8102
2507,396.0,9_44_28_8106
2508,397.0,9_44_28_8108
2509,398.0,9_44_28_8110
2510,399.0,9_44_28_8114
2511,400.0,9_44_28_8116
2512,401.0,9_44_28_8118
2513,402.0,9_44_28_8122
2514,403.0,9_44_28_8124
2515,404.0,9_44_28_8126
2516,405.0,9_44_28_8128
2517,406.0,9_44_28_8130
2518,407.0,9_44_28_8134
2519,408.0,9_44_28_8136
2520,409.0,9_44_28_8139
2521,410.0,9_44_28_8142
2522,411.0,9_44_28_8144
2523,412.0,9_44_28_8146
2524,413.0,9_44_28_8148
2525,414.0,9_44_28_8151
2526,415.0,9_44_28_8154
2527,416.0,9_44_28_8156
2528,417.0,9_44_28_8158
2529,418.0,9_44_28_8163
2530,419.0,9_44_28_8165
2531,420.0,9_44_28_8167
2532,421.0,9_44_28_8171
2533,422.0,9_44_28_8172
2534,423.0,9_44_28_8176
2535,424.0,9_44_28_8177
2536,425.0,9_44_28_8180
2537,426.0,9_44_28_8184
2538,427.0,9_44_28_8186
2539,428.0,9_44_28_8188
2540,429.0,9_44_28_8192
2541,430.0,9_44_28_8194
2542,431.0,9_44_28_8195
2543,432.0,9_44_28_8200
2544,433.0,9_44_28_8203
2545,434.0,9_44_28_8204
2546,435.0,9_44_28_8205
2547,436.0,9_44_28_8209
2548,437.0,9_44_28_8213
2549,438.0,9_44_28_8215
2550,439.0,9_44_28_8216
2551,440.0,9_44_28_8221
2552,441.0,9_44_28_8223
2553,442.0,9_44_28_8225
2554,443.0,9_44_28_8229
2555,444.0,9_44_28_8230
2556,445.0,9_44_28_8233
2557,446.0,9_44_28_8235
2558,447.0,9_44_28_8237
2559,448.0,9_44_28_8241
2560,449.0,9_44_28_8242
2561,450.0,9_44_28_8245
2562,451.0,9_44_28_8249
2563,452.0,9_44_28_8251
2564,453.0,9_44_28_8254
2565,454.0,9_44_28_8257
2566,455.0,9_44_28_8259
2567,456.0,9_44_28_8261
2568,457.0,9_44_28_8263
2569,458.0,9_44_28_8265
2570,459.0,9_44_28_8270
2571,460.0,9_44_28_8271
2572,461.0,9_44_28_8274
2573,462.0,9_44_28_8278
2574,463.0,9_44_28_8279
2575,464.0,9_44_28_8282
2576,465.0,9_44_28_8286
2577,466.0,9_44_28_8288
2578,467.0,9_44_28_8290
2579,468.0,9_44_28_8292
2580,469.0,9_44_28_8294
2581,470.0,9_44_28_8298
2582,471.0,9_44_28_8300
2583,472.0,9_44_28_8303
2584,473.0,9_44_28_8306
2585,474.0,9_44_28_8308
2586,475.0,9_44_28_8311
2587,476.0,9_44_28_8313
2588,477.0,9_44_28_8315
2589,478.0,9_44_28_8319
2590,479.0,9_44_28_8321
2591,480.0,9_44_28_8323
2592,481.0,9_44_28_8327
2593,482.0,9_44_28_8329
2594,483.0,9_44_28_8331
2595,484.0,9_44_28_8335
2596,485.0,9_44_28_8337
2597,486.0,9_44_28_8339
2598,487.0,9_44_28_8341
2599,488.0,9_44_28_8343
2600,489.0,9_44_28_8347
2601,490.0,9_44_28_8349
2602,491.0,9_44_28_8352
2603,492.0,9_44_28_8356
2604,493.0,9_44_28_8357
2605,494.0,9_44_28_8360
2606,495.0,9_44_28_8363
2607,496.0,9_44_28_8365
2608,497.0,9_44_28_8367
2609,498.0,9_44_28_8369
2610,499.0,9_44_28_8372
2611,500.0,9_44_28_8376
2612,501.0,9_44_28_8377
2613,502.0,9_44_28_8380
2614,503.0,9_44_28_8384
2615,504.0,9_44_28_8386
2616,505.0,9_44_28_8389
2617,506.0,9_44_28_8392
2618,507.0,9_44_28_8394
2619,508.0,9_44_28_8396
2620,509.0,9_44_28_8399
2621,510.0,9_44_28_8401
2622,511.0,9_44_28_8405
2623,512.0,9_44_28_8406
2624,513.0,9_44_28_8409
2625,514.0,9_44_28_8413
2626,515.0,9_44_28_8414
2627,516.0,9_44_28_8417
2628,517.0,9_44_28_8421
2629,518.0,9_44_28_8423
2630,519.0,9_44_28_8425
2631,520.0,9_44_28_8428
2632,521.0,9_44_28_8429
2633,522.0,9_44_28_8434
2634,523.0,9_44_28_8436
2635,524.0,9_44_28_8438
2636,525.0,9_44_28_8442
2637,526.0,9_44_28_8444
2638,527.0,9_44_28_8446
2639,528.0,9_44_28_8450
2640,529.0,9_44_28_8452
2641,530.0,9_44_28_8454
2642,531.0,9_44_28_8456
2643,532.0,9_44_28_8458
2644,533.0,9_44_28_8462
2645,534.0,9_44_28_8464
2646,535.0,9_44_28_8466
2647,536.0,9_44_28_8470
2648,537.0,9_44_28_8472
2649,538.0,9_44_28_8475
2650,539.0,9_44_28_8479
2651,540.0,9_44_28_8481
2652,541.0,9_44_28_8483
2653,542.0,9_44_28_8485
2654,543.0,9_44_28_8487
2655,544.0,9_44_28_8491
2656,545.0,9_44_28_8493
2657,546.0,9_44_28_8495
2658,547.0,9_44_28_8499
2659,548.0,9_44_28_8500
2660,549.0,9_44_28_8504
2661,550.0,9_44_28_8505
2662,551.0,9_44_28_8507
2663,552.0,9_44_28_8511
2664,553.0,9_44_28_8513
2665,554.0,9_44_28_8515
2666,555.0,9_44_28_8519
2667,556.0,9_44_28_8522
2668,557.0,9_44_28_8523
2669,558.0,9_44_28_8528
2670,559.0,9_44_28_8531
2671,560.0,9_44_28_8533
2672,561.0,9_44_28_8534
2673,562.0,9_44_28_8536
2674,563.0,9_44_28_8540
2675,564.0,9_44_28_8541
2676,565.0,9_44_28_8544
2677,566.0,9_44_28_8548
2678,567.0,9_44_28_8550
2679,568.0,9_44_28_8552
2680,569.0,9_44_28_8556
2681,570.0,9_44_28_8558
2682,571.0,9_44_28_8560
2683,572.0,9_44_28_8562
2684,573.0,9_44_28_8565
2685,574.0,9_44_28_8568
2686,575.0,9_44_28_8570
2687,576.0,9_44_28_8572
2688,577.0,9_44_28_8576
2689,578.0,9_44_28_8578
2690,579.0,9_44_28_8581
2691,580.0,9_44_28_8585
2692,581.0,9_44_28_8587
2693,582.0,9_44_28_8589
2694,583.0,9_44_28_8591
2695,584.0,9_44_28_8594
2696,585.0,9_44_28_8598
2697,586.0,9_44_28_8599
2698,587.0,9_44_28_8601
2699,588.0,9_44_28_8606
2700,589.0,9_44_28_8608
2701,590.0,9_44_28_8609
2702,591.0,9_44_28_8614
2703,592.0,9_44_28_8615
2704,593.0,9_44_28_8618
2705,594.0,9_44_28_8619
2706,595.0,9_44_28_8622
2707,596.0,9_44_28_8626
2708,597.0,9_44_28_8628
2709,598.0,9_44_28_8630
2710,599.0,9_44_28_8634
2711,600.0,9_44_28_8636
2712,601.0,9_44_28_8638
2713,602.0,9_44_28_8642
2714,603.0,9_44_28_8644
2715,604.0,9_44_28_8646
2716,605.0,9_44_28_8648
2717,606.0,9_44_28_8651
2718,607.0,9_44_28_8654
2719,608.0,9_44_28_8656
2720,609.0,9_44_28_8659
2721,610.0,9_44_28_8663
2722,611.0,9_44_28_8664
2723,612.0,9_44_28_8667
2724,613.0,9_44_28_8668
2725,614.0,9_44_28_8671
2726,615.0,9_44_28_8675
2727,616.0,9_44_28_8677
2728,617.0,9_44_28_8679
2729,618.0,9_44_28_8683
2730,619.0,9_44_28_8685
2731,620.0,9_44_28_8687
2732,621.0,9_44_28_8691
2733,622.0,9_44_28_8693
2734,623.0,9_44_28_8695
2735,624.0,9_44_28_8697
2736,625.0,9_44_28_8700
2737,626.0,9_44_28_8703
2738,627.0,9_44_28_8705
2739,628.0,9_44_28_8708
2740,629.0,9_44_28_8712
2741,630.0,9_44_28_8714
2742,631.0,9_44_28_8715
2743,632.0,9_44_28_8720
2744,633.0,9_44_28_8722
2745,634.0,9_44_28_8725
2746,635.0,9_44_28_8727
2747,636.0,9_44_28_8729
2748,637.0,9_44_28_8733
2749,638.0,9_44_28_8735
2750,639.0,9_44_28_8736
2751,640.0,9_44_28_8740
2752,641.0,9_44_28_8742
2753,642.0,9_44_28_8744
2754,643.0,9_44_28_8749
2755,644.0,9_44_28_8751
2756,645.0,9_44_28_8752
2757,646.0,9_44_28_8754
2758,647.0,9_44_28_8757
2759,648.0,9_44_28_8761
2760,649.0,9_44_28_8763
2761,650.0,9_44_28_8765
2762,651.0,9_44_28_8770
2763,652.0,9_44_28_8771
2764,653.0,9_44_28_8774
2765,654.0,9_44_28_8778
2766,655.0,9_44_28_8779
2767,656.0,9_44_28_8782
2768,657.0,9_44_28_8784
2769,658.0,9_44_28_8786
2770,659.0,9_44_28_8790
2771,660.0,9_44_28_8792
2772,661.0,9_44_28_8794
2773,662.0,9_44_28_8798
2774,663.0,9_44_28_8800
2775,664.0,9_44_28_8802
2776,665.0,9_44_28_8806
2777,666.0,9_44_28_8808
2778,667.0,9_44_28_8811
2779,668.0,9_44_28_8812
2780,669.0,9_44_28_8814
2781,670.0,9_44_28_8819
2782,671.0,9_44_28_8821
2783,672.0,9_44_28_8823
2784,673.0,9_44_28_8827
2785,674.0,9_44_28_8829
2786,675.0,9_44_28_8831
2787,676.0,9_44_28_8835
2788,677.0,9_44_28_8836
2789,678.0,9_44_28_8839
2790,679.0,9_44_28_8841
2791,680.0,9_44_28_8843
2792,681.0,9_44_28_8847
2793,682.0,9_44_28_8849
2794,683.0,9_44_28_8852
2795,684.0,9_44_28_8856
2796,685.0,9_44_28_8857
2797,686.0,9_44_28_8860
2798,687.0,9_44_28_8861
2799,688.0,9_44_28_8864
2800,689.0,9_44_28_8868
2801,690.0,9_44_28_8869
2802,691.0,9_44_28_8872
2803,692.0,9_44_28_8876
2804,693.0,9_44_28_8877
2805,694.0,9_44_28_8880
2806,695.0,9_44_28_8884
2807,696.0,9_44_28_8886
2808,697.0,9_44_28_8889
2809,698.0,9_44_28_8890
2810,699.0,9_44_28_8892
2811,700.0,9_44_28_8896
2812,701.0,9_44_28_8898
2813,702.0,9_44_28_8900
2814,703.0,9_44_28_8904
2815,704.0,9_44_28_8906
2816,705.0,9_44_28_8909
2817,706.0,9_44_28_8913
2818,707.0,9_44_28_8915
2819,708.0,9_44_28_8916
2820,709.0,9_44_28_8918
2821,710.0,9_44_28_8921
2822,711.0,9_44_28_8925
2823,712.0,9_44_28_8928
2824,713.0,9_44_28_8930
2825,714.0,9_44_28_8933
2826,715.0,9_44_28_8935
2827,716.0,9_44_28_8937
2828,717.0,9_44_28_8942
2829,718.0,9_44_28_8943
2830,719.0,9_44_28_8946
2831,720.0,9_44_28_8947
2832,721.0,9_44_28_8950
2833,722.0,9_44_28_8954
2834,723.0,9_44_28_8956
2835,724.0,9_44_28_8958
2836,725.0,9_44_28_8962
2837,726.0,9_44_29_8964
2838,727.0,9_44_29_8966
2839,728.0,9_44_29_8971
2840,729.0,9_44_29_8972
2841,730.0,9_44_29_8974
2842,731.0,9_44_29_8975
2843,732.0,9_44_29_8978
2844,733.0,9_44_29_8982
2845,734.0,9_44_29_8985
2846,735.0,9_44_29_8986
2847,736.0,9_44_29_8991
2848,737.0,9_44_29_8993
2849,738.0,9_44_29_8995
2850,739.0,9_44_29_8999
2851,740.0,9_44_29_9001
2852,741.0,9_44_29_9002
2853,742.0,9_44_29_9004
2854,743.0,9_44_29_9007
2855,744.0,9_44_29_9011
2856,745.0,9_44_29_9012
2857,746.0,9_44_29_9015
2858,747.0,9_44_29_9019
2859,748.0,9_44_29_9020
2860,749.0,9_44_29_9024
2861,750.0,9_44_29_9026
2862,751.0,9_44_29_9028
2863,752.0,9_44_29_9031
2864,753.0,9_44_29_9034
2865,754.0,9_44_29_9036
2866,755.0,9_44_29_9040
2867,756.0,9_44_29_9042
2868,757.0,9_44_29_9044
2869,758.0,9_44_29_9048
2870,759.0,9_44_29_9050
2871,760.0,9_44_29_9052
2872,761.0,9_44_29_9053
2873,762.0,9_44_29_9056
2874,763.0,9_44_29_9060
2875,764.0,9_44_29_9061
2876,765.0,9_44_29_9064
2877,766.0,9_44_29_9069
2878,767.0,9_44_29_9071
2879,768.0,9_44_29_9072
2880,769.0,9_44_29_9077
2881,770.0,9_44_29_9078
2882,771.0,9_44_29_9081
2883,772.0,9_44_29_9083
2884,773.0,9_44_29_9085
2885,774.0,9_44_29_9089
2886,775.0,9_44_29_9091
2887,776.0,9_44_29_9093
2888,777.0,9_44_29_9097
2889,778.0,9_44_29_9099
2890,779.0,9_44_29_9101
2891,780.0,9_44_29_9106
2892,781.0,9_44_29_9107
2893,782.0,9_44_29_9109
2894,783.0,9_44_29_9110
2895,784.0,9_44_29_9114
2896,785.0,9_44_29_9118
2897,786.0,9_44_29_9119
2898,787.0,9_44_29_9122
2899,788.0,9_44_29_9126
2900,789.0,9_44_29_9130
2901,790.0,9_44_29_9133
2902,791.0,9_44_29_9135
2903,792.0,9_44_29_9137
2904,793.0,9_44_29_9138
2905,794.0,9_44_29_9140
2906,795.0,9_44_29_9142
2907,796.0,9_44_29_9146
2908,797.0,9_44_29_9148
2909,798.0,9_44_29_9150
2910,799.0,9_44_29_9154
2911,800.0,9_44_29_9156
2912,801.0,9_44_29_9158
2913,802.0,9_44_29_9162
2914,803.0,9_44_29_9164
2915,804.0,9_44_29_9167
2916,805.0,9_44_29_9169
2917,806.0,9_44_29_9171
2918,807.0,9_44_29_9175
2919,808.0,9_44_29_9177
2920,809.0,9_44_29_9179
2921,810.0,9_44_29_9183
2922,811.0,9_44_29_9185
2923,812.0,9_44_29_9187
2924,813.0,9_44_29_9188
2925,814.0,9_44_29_9191
2926,815.0,9_44_29_9195
2927,816.0,9_44_29_9198
2928,817.0,9_44_29_9199
2929,818.0,9_44_29_9204
2930,819.0,9_44_29_9206
2931,820.0,9_44_29_9207
2932,821.0,9_44_29_9212
2933,822.0,9_44_29_9214
2934,823.0,9_44_29_9216
2935,824.0,9_44_29_9218
2936,825.0,9_44_29_9220
2937,826.0,9_44_29_9224
2938,827.0,9_44_29_9227
2939,828.0,9_44_29_9229
2940,829.0,9_44_29_9233
2941,830.0,9_44_29_9235
2942,831.0,9_44_29_9237
2943,832.0,9_44_29_9240
2944,833.0,9_44_29_9242
2945,834.0,9_44_29_9245
2946,835.0,9_44_29_9246
2947,836.0,9_44_29_9249
2948,837.0,9_44_29_9252
2949,838.0,9_44_29_9254
2950,839.0,9_44_29_9257
2951,840.0,9_44_29_9261
2952,841.0,9_44_29_9263
2953,842.0,9_44_29_9265
2954,843.0,9_44_29_9269
2955,844.0,9_44_29_9271
2956,845.0,9_44_29_9273
2957,846.0,9_44_29_9275
2958,847.0,9_44_29_9278
2959,848.0,9_44_29_9282
2960,849.0,9_44_29_9283
2961,850.0,9_44_29_9286
2962,851.0,9_44_29_9289
2963,852.0,9_44_29_9292
2964,853.0,9_44_29_9293
2965,854.0,9_44_29_9298
2966,855.0,9_44_29_9300
2967,856.0,9_44_29_9301
2968,857.0,9_44_29_9303
2969,858.0,9_44_29_9306
2970,859.0,9_44_29_9310
2971,860.0,9_44_29_9312
2972,861.0,9_44_29_9314
2973,862.0,9_44_29_9318
2974,863.0,9_44_29_9320
2975,864.0,9_44_29_9322
2976,865.0,9_44_29_9326
2977,866.0,9_44_29_9328
2978,867.0,9_44_29_9331
2979,868.0,9_44_29_9333
2980,869.0,9_44_29_9335
2981,870.0,9_44_29_9338
2982,871.0,9_44_29_9340
2983,872.0,9_44_29_9343
2984,873.0,9_44_29_9347
2985,874.0,9_44_29_9349
2986,875.0,9_44_29_9351
2987,876.0,9_44_29_9355
2988,877.0,9_44_29_9357
2989,878.0,9_44_29_9359
2990,879.0,9_44_29_9361
2991,880.0,9_44_29_9363
2992,881.0,9_44_29_9368
2993,882.0,9_44_29_9370
2994,883.0,9_44_29_9371
2995,884.0,9_44_29_9376
2996,885.0,9_44_29_9377
2997,886.0,9_44_29_9380
2998,887.0,9_44_29_9384
2999,888.0,9_44_29_9386
3000,889.0,9_44_29_9388
3001,890.0,9_44_29_9389
3002,891.0,9_44_29_9392
3003,892.0,9_44_29_9396
3004,893.0,9_44_29_9397
3005,894.0,9_44_29_9400
3006,895.0,9_44_29_9404
3007,896.0,9_44_29_9406
3008,897.0,9_44_29_9408
3009,898.0,9_44_29_9410
3010,899.0,9_44_29_9412
3011,900.0,9_44_29_9417
3012,901.0,9_44_29_9419
3013,902.0,9_44_29_9421
3014,903.0,9_44_29_9424
3015,904.0,9_44_29_9426
3016,905.0,9_44_29_9428
3017,906.0,9_44_29_9433
3018,907.0,9_44_29_9436
3019,908.0,9_44_29_9437
3020,909.0,9_44_29_9438
3021,910.0,9_44_29_9441
3022,911.0,9_44_29_9445
3023,912.0,9_44_29_9447
3024,913.0,9_44_29_9449
3025,914.0,9_44_29_9454
3026,915.0,9_44_29_9456
3027,916.0,9_44_29_9457
3028,917.0,9_44_29_9462
3029,918.0,9_44_29_9464
3030,919.0,9_44_29_9466
3031,920.0,9_44_29_9468
3032,921.0,9_44_29_9470
3033,922.0,9_44_29_9474
3034,923.0,9_44_29_9476
3035,924.0,9_44_29_9478
3036,925.0,9_44_29_9482
3037,926.0,9_44_29_9484
3038,927.0,9_44_29_9486
3039,928.0,9_44_29_9491
3040,929.0,9_44_29_9492
3041,930.0,9_44_29_9495
3042,931.0,9_44_29_9497
3043,932.0,9_44_29_9498
3044,933.0,9_44_29_9503
3045,934.0,9_44_29_9504
3046,935.0,9_44_29_9507
3047,936.0,9_44_29_9510
3048,937.0,9_44_29_9512
3049,938.0,9_44_29_9515
3050,939.0,9_44_29_9519
3051,940.0,9_44_29_9521
3052,941.0,9_44_29_9523
3053,942.0,9_44_29_9525
3054,943.0,9_44_29_9527
3055,944.0,9_44_29_9531
3056,945.0,9_44_29_9534
3057,946.0,9_44_29_9536
3058,947.0,9_44_29_9539
3059,948.0,9_44_29_9542
3060,949.0,9_44_29_9543
3061,950.0,9_44_29_9544
3062,951.0,9_44_29_9547
3063,952.0,9_44_29_9551
3064,953.0,9_44_29_9553
3065,954.0,9_44_29_9556
3066,955.0,9_44_29_9560
3067,956.0,9_44_29_9562
3068,957.0,9_44_29_9564
3069,958.0,9_44_29_9569
3070,959.0,9_44_29_9570
3071,960.0,9_44_29_9572
3072,961.0,9_44_29_9574
3073,962.0,9_44_29_9577
3074,963.0,9_44_29_9581
3075,964.0,9_44_29_9582
3076,965.0,9_44_29_9584
3077,966.0,9_44_29_9589
3078,967.0,9_44_29_9591
3079,968.0,9_44_29_9593
3080,969.0,9_44_29_9597
3081,970.0,9_44_29_9599
3082,971.0,9_44_29_9601
3083,972.0,9_44_29_9602
3084,973.0,9_44_29_9605
3085,974.0,9_44_29_9609
3086,975.0,9_44_29_9611
3087,976.0,9_44_29_9613
3088,977.0,9_44_29_9617
3089,978.0,9_44_29_9619
3090,979.0,9_44_29_9622
3091,980.0,9_44_29_9626
3092,981.0,9_44_29_9628
3093,982.0,9_44_29_9631
3094,983.0,9_44_29_9633
3095,984.0,9_44_29_9637
3096,985.0,9_44_29_9639
3097,986.0,9_44_29_9641
3098,987.0,9_44_29_9642
3099,988.0,9_44_29_9646
3100,989.0,9_44_29_9648
3101,990.0,9_44_29_9650
3102,991.0,9_44_29_9654
3103,992.0,9_44_29_9656
3104,993.0,9_44_29_9659
3105,994.0,9_44_29_9661
3106,995.0,9_44_29_9662
3107,996.0,9_44_29_9667
3108,997.0,9_44_29_9669
3109,998.0,9_44_29_9671
3110,999.0,9_44_29_9674
3111,1000.0,9_44_29_9676
3112,1001.0,9_44_29_9679
3113,1002.0,9_44_29_9683
3114,1003.0,9_44_29_9687
3115,1004.0,9_44_29_9689
3116,1005.0,9_44_29_9690
3117,1006.0,9_44_29_9695
3118,1007.0,9_44_29_9699
3119,1008.0,9_44_29_9701
3120,1009.0,9_44_29_9703
3121,1010.0,9_44_29_9708
3122,1011.0,9_44_29_9712
3123,1012.0,9_44_29_9715
3124,1013.0,9_44_29_9717
3125,1014.0,9_44_29_9720
3126,1015.0,9_44_29_9724
3127,1016.0,9_44_29_9728
3128,1017.0,9_44_29_9731
3129,1018.0,9_44_29_9733
3130,1019.0,9_44_29_9736
3131,1020.0,9_44_29_9741
3132,1021.0,9_44_29_9742
3133,1022.0,9_44_29_9744
3134,1023.0,9_44_29_9749
3135,0.0,9_44_29_9751
3136,1.0,9_44_29_9753
3137,2.0,9_44_29_9754
3138,3.0,9_44_29_9755
3139,4.0,9_44_29_9757
3140,5.0,9_44_29_9758
3141,6.0,9_44_29_9761
3142,7.0,9_44_29_9763
3143,8.0,9_44_29_9765
3144,9.0,9_44_29_9766
3145,10.0,9_44_29_9768
3146,11.0,9_44_29_9770
3147,12.0,9_44_29_9771
3148,13.0,9_44_29_9772
3149,14.0,9_44_29_9774
3150,15.0,9_44_29_9778
3151,16.0,9_44_29_9779
3152,17.0,9_44_29_9781
3153,18.0,9_44_29_9782
3154,19.0,9_44_29_9785
3155,20.0,9_44_29_9787
3156,21.0,9_44_29_9789
3157,22.0,9_44_29_9791
3158,23.0,9_44_29_9793
3159,24.0,9_44_29_9795
3160,25.0,9_44_29_9798
3161,26.0,9_44_29_9799
3162,27.0,9_44_29_9802
3163,28.0,9_44_29_9803
3164,29.0,9_44_29_9805
3165,30.0,9_44_29_9807
3166,31.0,9_44_29_9810
3167,32.0,9_44_29_9812
3168,33.0,9_44_29_9814
3169,34.0,9_44_29_9815
3170,35.0,9_44_29_9818
3171,36.0,9_44_29_9820
3172,37.0,9_44_29_9822
3173,38.0,9_44_29_9823
3174,39.0,9_44_29_9826
3175,40.0,9_44_29_9829
3176,41.0,9_44_29_9832
3177,42.0,9_44_29_9834
3178,43.0,9_44_29_9836
3179,44.0,9_44_29_9838
3180,45.0,9_44_29_9839
3181,46.0,9_44_29_9843
3182,47.0,9_44_29_9845
3183,48.0,9_44_29_9847
3184,49.0,9_44_29_9849
3185,50.0,9_44_29_9851
3186,51.0,9_44_29_9855
3187,52.0,9_44_29_9857
3188,53.0,9_44_29_9858
3189,54.0,9_44_29_9861
3190,55.0,9_44_29_9862
3191,56.0,9_44_29_9863
3192,57.0,9_44_29_9865
3193,58.0,9_44_29_9868
3194,59.0,9_44_29_9870
3195,60.0,9_44_29_9871
3196,61.0,9_44_29_9872
3197,62.0,9_44_29_9875
3198,63.0,9_44_29_9877
3199,64.0,9_44_29_9879
3200,65.0,9_44_29_9881
3201,66.0,9_44_29_9884
3202,67.0,9_44_29_9885
3203,68.0,9_44_29_9888
3204,69.0,9_44_29_9890
3205,70.0,9_44_29_9892
3206,71.0,9_44_29_9894
3207,72.0,9_44_29_9896
3208,73.0,9_44_29_9898
3209,74.0,9_44_29_9899
3210,75.0,9_44_29_9901
3211,76.0,9_44_29_9903
3212,77.0,9_44_29_9905
3213,78.0,9_44_29_9908
3214,79.0,9_44_29_9909
3215,80.0,9_44_29_9912
3216,81.0,9_44_29_9914
3217,82.0,9_44_29_9916
3218,83.0,9_44_29_9918
3219,84.0,9_44_29_9920
3220,85.0,9_44_29_9922
3221,86.0,9_44_29_9925
3222,87.0,9_44_29_9927
3223,88.0,9_44_29_9929
3224,89.0,9_44_29_9931
3225,90.0,9_44_29_9933
3226,91.0,9_44_29_9935
3227,92.0,9_44_29_9936
3228,93.0,9_44_29_9938
3229,94.0,9_44_29_9941
3230,95.0,9_44_29_9943
3231,96.0,9_44_29_9945
3232,97.0,9_44_29_9946
3233,98.0,9_44_29_9949
3234,99.0,9_44_29_9951
3235,100.0,9_44_29_9953
3236,101.0,9_44_29_9958
3237,102.0,9_44_29_9960
3238,103.0,9_44_29_9961
3239,104.0,9_44_30_9965
3240,105.0,9_44_30_9967
3241,106.0,9_44_30_9970
3242,107.0,9_44_30_9974
3243,108.0,9_44_30_9976
3244,109.0,9_44_30_9977
3245,110.0,9_44_30_9979
3246,111.0,9_44_30_9982
3247,112.0,9_44_30_9985
3248,113.0,9_44_30_9987
3249,114.0,9_44_30_9990
3250,115.0,9_44_30_9994
3251,116.0,9_44_30_9996
3252,117.0,9_44_30_9998
3253,118.0,9_44_30_10003
3254,119.0,9_44_30_10004
3255,120.0,9_44_30_10006
3256,121.0,9_44_30_10007
3257,122.0,9_44_30_10011
3258,123.0,9_44_30_10015
3259,124.0,9_44_30_10017
3260,125.0,9_44_30_10019
3261,126.0,9_44_30_10023
3262,127.0,9_44_30_10025
3263,128.0,9_44_30_10027
3264,129.0,9_44_30_10029
3265,130.0,9_44_30_10031
3266,131.0,9_44_30_10035
3267,132.0,9_44_30_10037
3268,133.0,9_44_30_10039
3269,134.0,9_44_30_10044
3270,135.0,9_44_30_10046
3271,136.0,9_44_30_10049
3272,137.0,9_44_30_10052
3273,138.0,9_44_30_10054
3274,139.0,9_44_30_10055
3275,140.0,9_44_30_10057
3276,141.0,9_44_30_10059
3277,142.0,9_44_30_10064
3278,143.0,9_44_30_10065
3279,144.0,9_44_30_10068
3280,145.0,9_44_30_10072
3281,146.0,9_44_30_10074
3282,147.0,9_44_30_10076
3283,148.0,9_44_30_10080
3284,149.0,9_44_30_10082
3285,150.0,9_44_30_10084
3286,151.0,9_44_30_10085
3287,152.0,9_44_30_10089
3288,153.0,9_44_30_10092
3289,154.0,9_44_30_10094
3290,155.0,9_44_30_10097
3291,156.0,9_44_30_10101
3292,157.0,9_44_30_10103
3293,158.0,9_44_30_10104
3294,159.0,9_44_30_10109
3295,160.0,9_44_30_10111
3296,161.0,9_44_30_10113
3297,162.0,9_44_30_10115
3298,163.0,9_44_30_10117
3299,164.0,9_44_30_10122
3300,165.0,9_44_30_10124
3301,166.0,9_44_30_10125
3302,167.0,9_44_30_10129
3303,168.0,9_44_30_10132
3304,169.0,9_44_30_10134
3305,170.0,9_44_30_10137
3306,171.0,9_44_30_10139
3307,172.0,9_44_30_10142
3308,173.0,9_44_30_10144
3309,174.0,9_44_30_10146
3310,175.0,9_44_30_10149
3311,176.0,9_44_30_10152
3312,177.0,9_44_30_10154
3313,178.0,9_44_30_10158
3314,179.0,9_44_30_10160
3315,180.0,9_44_30_10162
3316,181.0,9_44_30_10166
3317,182.0,9_44_30_10168
3318,183.0,9_44_30_10170
3319,184.0,9_44_30_10173
3320,185.0,9_44_30_10175
3321,186.0,9_44_30_10179
3322,187.0,9_44_30_10181
3323,188.0,9_44_30_10182
3324,189.0,9_44_30_10186
3325,190.0,9_44_30_10188
3326,191.0,9_44_30_10191
3327,192.0,9_44_30_10193
3328,193.0,9_44_30_10194
3329,194.0,9_44_30_10199
3330,195.0,9_44_30_10201
3331,196.0,9_44_30_10203
3332,197.0,9_44_30_10207
3333,198.0,9_44_30_10209
3334,199.0,9_44_30_10212
3335,200.0,9_44_30_10216
3336,201.0,9_44_30_10218
3337,202.0,9_44_30_10219
3338,203.0,9_44_30_10221
3339,204.0,9_44_30_10223
3340,205.0,9_44_30_10228
3341,206.0,9_44_30_10231
3342,207.0,9_44_30_10233
3343,208.0,9_44_30_10235
3344,209.0,9_44_30_10237
3345,210.0,9_44_30_10240
3346,211.0,9_44_30_10244
3347,212.0,9_44_30_10246
3348,213.0,9_44_30_10249
3349,214.0,9_44_30_10251
3350,215.0,9_44_30_10253
3351,216.0,9_44_30_10257
3352,217.0,9_44_30_10259
3353,218.0,9_44_30_10260
3354,219.0,9_44_30_10264
3355,220.0,9_44_30_10266
3356,221.0,9_44_30_10268
3357,222.0,9_44_30_10272
3358,223.0,9_44_30_10274
3359,224.0,9_44_30_10276
3360,225.0,9_44_30_10278
3361,226.0,9_44_30_10281
3362,227.0,9_44_30_10285
3363,228.0,9_44_30_10287
3364,229.0,9_44_30_10290
3365,230.0,9_44_30_10293
3366,231.0,9_44_30_10295
3367,232.0,9_44_30_10297
3368,233.0,9_44_30_10302
3369,234.0,9_44_30_10304
3370,235.0,9_44_30_10305
3371,236.0,9_44_30_10307
3372,237.0,9_44_30_10309
3373,238.0,9_44_30_10314
3374,239.0,9_44_30_10315
3375,240.0,9_44_30_10343
3376,241.0,9_44_30_10375
3377,242.0,9_44_30_10377
3378,243.0,9_44_30_10378
3379,244.0,9_44_30_10380
3380,245.0,9_44_30_10382
3381,246.0,9_44_30_10383
3382,247.0,9_44_30_10385
3383,248.0,9_44_30_10386
3384,249.0,9_44_30_10388
3385,250.0,9_44_30_10389
3386,251.0,9_44_30_10391
3387,252.0,9_44_30_10393
3388,253.0,9_44_30_10395
3389,254.0,9_44_30_10397
3390,255.0,9_44_30_10399
3391,256.0,9_44_30_10400
3392,257.0,9_44_30_10402
3393,258.0,9_44_30_10403
3394,259.0,9_44_30_10406
3395,260.0,9_44_30_10409
3396,261.0,9_44_30_10411
3397,262.0,9_44_30_10413
3398,263.0,9_44_30_10414
3399,264.0,9_44_30_10416
3400,265.0,9_44_30_10418
3401,266.0,9_44_30_10422
3402,267.0,9_44_30_10423
3403,268.0,9_44_30_10426
3404,269.0,9_44_30_10430
3405,270.0,9_44_30_10433
3406,271.0,9_44_30_10435
3407,272.0,9_44_30_10437
3408,273.0,9_44_30_10438
3409,274.0,9_44_30_10440
3410,275.0,9_44_30_10441
3411,276.0,9_44_30_10443
3412,277.0,9_44_30_10447
3413,278.0,9_44_30_10451
3414,279.0,9_44_30_10453
3415,280.0,9_44_30_10454
3416,281.0,9_44_30_10456
3417,282.0,9_44_30_10458
3418,283.0,9_44_30_10460
3419,284.0,9_44_30_10461
3420,285.0,9_44_30_10463
3421,286.0,9_44_30_10466
3422,287.0,9_44_30_10469
3423,288.0,9_44_30_10471
3424,289.0,9_44_30_10473
3425,290.0,9_44_30_10475
3426,291.0,9_44_30_10476
3427,292.0,9_44_30_10479
3428,293.0,9_44_30_10481
3429,294.0,9_44_30_10486
3430,295.0,9_44_30_10488
3431,296.0,9_44_30_10490
3432,297.0,9_44_30_10491
3433,298.0,9_44_30_10493
3434,299.0,9_44_30_10495
3435,300.0,9_44_30_10496
3436,301.0,9_44_30_10498
3437,302.0,9_44_30_10502
3438,303.0,9_44_30_10504
3439,304.0,9_44_30_10506
3440,305.0,9_44_30_10507
3441,306.0,9_44_30_10509
3442,307.0,9_44_30_10510
3443,308.0,9_44_30_10512
3444,309.0,9_44_30_10514
3445,310.0,9_44_30_10516
3446,311.0,9_44_30_10521
3447,312.0,9_44_30_10522
3448,313.0,9_44_30_10524
3449,314.0,9_44_30_10525
3450,315.0,9_44_30_10528
3451,316.0,9_44_30_10530
3452,317.0,9_44_30_10532
3453,318.0,9_44_30_10535
3454,319.0,9_44_30_10538
3455,320.0,9_44_30_10539
3456,321.0,9_44_30_10541
3457,322.0,9_44_30_10543
3458,323.0,9_44_30_10544
3459,324.0,9_44_30_10546
3460,325.0,9_44_30_10548
3461,326.0,9_44_30_10550
3462,327.0,9_44_30_10554
3463,328.0,9_44_30_10556
3464,329.0,9_44_30_10557
3465,330.0,9_44_30_10559
3466,331.0,9_44_30_10560
3467,332.0,9_44_30_10562
3468,333.0,9_44_30_10564
3469,334.0,9_44_30_10565
3470,335.0,9_44_30_10567
3471,336.0,9_44_30_10569
3472,337.0,9_44_30_10572
3473,338.0,9_44_30_10574
3474,339.0,9_44_30_10575
3475,340.0,9_44_30_10577
3476,341.0,9_44_30_10580
3477,342.0,9_44_30_10584
3478,343.0,9_44_30_10586
3479,344.0,9_44_30_10589
3480,345.0,9_44_30_10592
3481,346.0,9_44_30_10594
3482,347.0,9_44_30_10596
3483,348.0,9_44_30_10600
3484,349.0,9_44_30_10602
3485,350.0,9_44_30_10604
3486,351.0,9_44_30_10605
3487,352.0,9_44_30_10609
3488,353.0,9_44_30_10612
3489,354.0,9_44_30_10614
3490,355.0,9_44_30_10617
3491,356.0,9_44_30_10621
3492,357.0,9_44_30_10623
3493,358.0,9_44_30_10625
3494,359.0,9_44_30_10629
3495,360.0,9_44_30_10632
3496,361.0,9_44_30_10635
3497,362.0,9_44_30_10637
3498,363.0,9_44_30_10640
3499,364.0,9_44_30_10642
3500,365.0,9_44_30_10644
3501,366.0,9_44_30_10646
3502,367.0,9_44_30_10650
3503,368.0,9_44_30_10652
3504,369.0,9_44_30_10654
3505,370.0,9_44_30_10658
3506,371.0,9_44_30_10660
3507,372.0,9_44_30_10662
3508,373.0,9_44_30_10664
3509,374.0,9_44_30_10666
3510,375.0,9_44_30_10670
3511,376.0,9_44_30_10673
3512,377.0,9_44_30_10675
3513,378.0,9_44_30_10678
3514,379.0,9_44_30_10680
3515,380.0,9_44_30_10682
3516,381.0,9_44_30_10686
3517,382.0,9_44_30_10688
3518,383.0,9_44_30_10691
3519,384.0,9_44_30_10693
3520,385.0,9_44_30_10695
3521,386.0,9_44_30_10698
3522,387.0,9_44_30_10700
3523,388.0,9_44_30_10703
3524,389.0,9_44_30_10707
3525,390.0,9_44_30_10709
3526,391.0,9_44_30_10710
3527,392.0,9_44_30_10712
3528,393.0,9_44_30_10715
3529,394.0,9_44_30_10719
3530,395.0,9_44_30_10721
3531,396.0,9_44_30_10724
3532,397.0,9_44_30_10728
3533,398.0,9_44_30_10731
3534,399.0,9_44_30_10733
3535,400.0,9_44_30_10736
3536,401.0,9_44_30_10737
3537,402.0,9_44_30_10739
3538,403.0,9_44_30_10741
3539,404.0,9_44_30_10744
3540,405.0,9_44_30_10748
3541,406.0,9_44_30_10750
3542,407.0,9_44_30_10752
3543,408.0,9_44_30_10756
3544,409.0,9_44_30_10758
3545,410.0,9_44_30_10760
3546,411.0,9_44_30_10764
3547,412.0,9_44_30_10766
3548,413.0,9_44_30_10768
3549,414.0,9_44_30_10770
3550,415.0,9_44_30_10772
3551,416.0,9_44_30_10776
3552,417.0,9_44_30_10778
3553,418.0,9_44_30_10781
3554,419.0,9_44_30_10784
3555,420.0,9_44_30_10787
3556,421.0,9_44_30_10788
3557,422.0,9_44_30_10793
3558,423.0,9_44_30_10796
3559,424.0,9_44_30_10797
3560,425.0,9_44_30_10800
3561,426.0,9_44_30_10802
3562,427.0,9_44_30_10805
3563,428.0,9_44_30_10807
3564,429.0,9_44_30_10809
3565,430.0,9_44_30_10814
3566,431.0,9_44_30_10817
3567,432.0,9_44_30_10819
3568,433.0,9_44_30_10821
3569,434.0,9_44_30_10823
3570,435.0,9_44_30_10826
3571,436.0,9_44_30_10829
3572,437.0,9_44_30_10832
3573,438.0,9_44_30_10835
3574,439.0,9_44_30_10837
3575,440.0,9_44_30_10839
3576,441.0,9_44_30_10842
3577,442.0,9_44_30_10844
3578,443.0,9_44_30_10846
3579,444.0,9_44_30_10850
3580,445.0,9_44_30_10852
3581,446.0,9_44_30_10854
3582,447.0,9_44_30_10856
3583,448.0,9_44_30_10858
3584,449.0,9_44_30_10862
3585,450.0,9_44_30_10865
3586,451.0,9_44_30_10867
3587,452.0,9_44_30_10871
3588,453.0,9_44_30_10873
3589,454.0,9_44_30_10874
3590,455.0,9_44_30_10879
3591,456.0,9_44_30_10881
3592,457.0,9_44_30_10883
3593,458.0,9_44_30_10885
3594,459.0,9_44_30_10888
3595,460.0,9_44_30_10891
3596,461.0,9_44_30_10892
3597,462.0,9_44_30_10896
3598,463.0,9_44_30_10899
3599,464.0,9_44_30_10901
3600,465.0,9_44_30_10903
3601,466.0,9_44_30_10905
3602,467.0,9_44_30_10908
3603,468.0,9_44_30_10912
3604,469.0,9_44_30_10914
3605,470.0,9_44_30_10916
3606,471.0,9_44_30_10920
3607,472.0,9_44_30_10922
3608,473.0,9_44_30_10924
3609,474.0,9_44_30_10928
3610,475.0,9_44_30_10931
3611,476.0,9_44_30_10933
3612,477.0,9_44_30_10936
3613,478.0,9_44_30_10937
3614,479.0,9_44_30_10940
3615,480.0,9_44_30_10942
3616,481.0,9_44_30_10944
3617,482.0,9_44_30_10949
3618,483.0,9_44_30_10951
3619,484.0,9_44_30_10953
3620,485.0,9_44_30_10957
3621,486.0,9_44_30_10959
3622,487.0,9_44_30_10961
3623,488.0,9_44_31_10963
3624,489.0,9_44_31_10965
3625,490.0,9_44_31_10969
3626,491.0,9_44_31_10971
3627,492.0,9_44_31_10973
3628,493.0,9_44_31_10977
3629,494.0,9_44_31_10979
3630,495.0,9_44_31_10982
3631,496.0,9_44_31_10986
3632,497.0,9_44_31_10988
3633,498.0,9_44_31_10989
3634,499.0,9_44_31_10991
3635,500.0,9_44_31_10993
3636,501.0,9_44_31_10998
3637,502.0,9_44_31_11001
3638,503.0,9_44_31_11003
3639,504.0,9_44_31_11005
3640,505.0,9_44_31_11008
3641,506.0,9_44_31_11010
3642,507.0,9_44_31_11014
3643,508.0,9_44_31_11016
3644,509.0,9_44_31_11018
3645,510.0,9_44_31_11021
3646,511.0,9_44_31_11023
3647,512.0,9_44_31_11026
3648,513.0,9_44_31_11028
3649,514.0,9_44_31_11031
3650,515.0,9_44_31_11035
3651,516.0,9_44_31_11037
3652,517.0,9_44_31_11039
3653,518.0,9_44_31_11043
3654,519.0,9_44_31_11045
3655,520.0,9_44_31_11047
3656,521.0,9_44_31_11048
3657,522.0,9_44_31_11051
3658,523.0,9_44_31_11055
3659,524.0,9_44_31_11057
3660,525.0,9_44_31_11060
3661,526.0,9_44_31_11063
3662,527.0,9_44_31_11065
3663,528.0,9_44_31_11067
3664,529.0,9_44_31_11068
3665,530.0,9_44_31_11071
3666,531.0,9_44_31_11076
3667,532.0,9_44_31_11078
3668,533.0,9_44_31_11079
3669,534.0,9_44_31_11084
3670,535.0,9_44_31_11086
3671,536.0,9_44_31_11088
3672,537.0,9_44_31_11092
3673,538.0,9_44_31_11094
3674,539.0,9_44_31_11095
3675,540.0,9_44_31_11097
3676,541.0,9_44_31_11100
3677,542.0,9_44_31_11104
3678,543.0,9_44_31_11107
3679,544.0,9_44_31_11108
3680,545.0,9_44_31_11112
3681,546.0,9_44_31_11115
3682,547.0,9_44_31_11117
3683,548.0,9_44_31_11121
3684,549.0,9_44_31_11123
3685,550.0,9_44_31_11125
3686,551.0,9_44_31_11127
3687,552.0,9_44_31_11129
3688,553.0,9_44_31_11133
3689,554.0,9_44_31_11136
3690,555.0,9_44_31_11138
3691,556.0,9_44_31_11141
3692,557.0,9_44_31_11145
3693,558.0,9_44_31_11147
3694,559.0,9_44_31_11150
3695,560.0,9_44_31_11152
3696,561.0,9_44_31_11154
3697,562.0,9_44_31_11155
3698,563.0,9_44_31_11157
3699,564.0,9_44_31_11162
3700,565.0,9_44_31_11164
3701,566.0,9_44_31_11166
3702,567.0,9_44_31_11170
3703,568.0,9_44_31_11172
3704,569.0,9_44_31_11173
3705,570.0,9_44_31_11177
3706,571.0,9_44_31_11179
3707,572.0,9_44_31_11182
3708,573.0,9_44_31_11184
3709,574.0,9_44_31_11186
3710,575.0,9_44_31_11190
3711,576.0,9_44_31_11192
3712,577.0,9_44_31_11194
3713,578.0,9_44_31_11199
3714,579.0,9_44_31_11201
3715,580.0,9_44_31_11203
3716,581.0,9_44_31_11207
3717,582.0,9_44_31_11209
3718,583.0,9_44_31_11211
3719,584.0,9_44_31_11213
3720,585.0,9_44_31_11215
3721,586.0,9_44_31_11219
3722,587.0,9_44_31_11221
3723,588.0,9_44_31_11223
3724,589.0,9_44_31_11227
3725,590.0,9_44_31_11230
3726,591.0,9_44_31_11232
3727,592.0,9_44_31_11235
3728,593.0,9_44_31_11237
3729,594.0,9_44_31_11239
3730,595.0,9_44_31_11241
3731,596.0,9_44_31_11243
3732,597.0,9_44_31_11248
3733,598.0,9_44_31_11250
3734,599.0,9_44_31_11252
3735,600.0,9_44_31_11255
3736,601.0,9_44_31_11257
3737,602.0,9_44_31_11260
3738,603.0,9_44_31_11263
3739,604.0,9_44_31_11264
3740,605.0,9_44_31_11268
3741,606.0,9_44_31_11270
3742,607.0,9_44_31_11272
3743,608.0,9_44_31_11276
3744,609.0,9_44_31_11279
3745,610.0,9_44_31_11281
3746,611.0,9_44_31_11284
3747,612.0,9_44_31_11287
3748,613.0,9_44_31_11288
3749,614.0,9_44_31_11290
3750,615.0,9_44_31_11293
3751,616.0,9_44_31_11297
3752,617.0,9_44_31_11299
3753,618.0,9_44_31_11301
3754,619.0,9_44_31_11305
3755,620.0,9_44_31_11307
3756,621.0,9_44_31_11309
3757,622.0,9_44_31_11313
3758,623.0,9_44_31_11315
3759,624.0,9_44_31_11317
3760,625.0,9_44_31_11319
3761,626.0,9_44_31_11321
3762,627.0,9_44_31_11326
3763,628.0,9_44_31_11329
3764,629.0,9_44_31_11332
3765,630.0,9_44_31_11336
3766,631.0,9_44_31_11338
3767,632.0,9_44_31_11339
3768,633.0,9_44_31_11342
3769,634.0,9_44_31_11344
3770,635.0,9_44_31_11346
3771,636.0,9_44_31_11348
3772,637.0,9_44_31_11350
3773,638.0,9_44_31_11354
3774,639.0,9_44_31_11356
3775,640.0,9_44_31_11358
3776,641.0,9_44_31_11362
3777,642.0,9_44_31_11364
3778,643.0,9_44_31_11367
3779,644.0,9_44_31_11370
3780,645.0,9_44_31_11372
3781,646.0,9_44_31_11375
3782,647.0,9_44_31_11377
3783,648.0,9_44_31_11378
3784,649.0,9_44_31_11382
3785,650.0,9_44_31_11384
3786,651.0,9_44_31_11387
3787,652.0,9_44_31_11391
3788,653.0,9_44_31_11393
3789,654.0,9_44_31_11395
3790,655.0,9_44_31_11399
3791,656.0,9_44_31_11401
3792,657.0,9_44_31_11403
3793,658.0,9_44_31_11405
3794,659.0,9_44_31_11407
3795,660.0,9_44_31_11412
3796,661.0,9_44_31_11414
3797,662.0,9_44_31_11416
3798,663.0,9_44_31_11420
3799,664.0,9_44_31_11423
3800,665.0,9_44_31_11424
3801,666.0,9_44_31_11427
3802,667.0,9_44_31_11431
3803,668.0,9_44_31_11434
3804,669.0,9_44_31_11436
3805,670.0,9_44_31_11438
3806,671.0,9_44_31_11441
3807,672.0,9_44_31_11443
3808,673.0,9_44_31_11445
3809,674.0,9_44_31_11449
3810,675.0,9_44_31_11451
3811,676.0,9_44_31_11453
3812,677.0,9_44_31_11456
3813,678.0,9_44_31_11458
3814,679.0,9_44_31_11460
3815,680.0,9_44_31_11462
3816,681.0,9_44_31_11465
3817,682.0,9_44_31_11468
3818,683.0,9_44_31_11471
3819,684.0,9_44_31_11472
3820,685.0,9_44_31_11477
3821,686.0,9_44_31_11479
3822,687.0,9_44_31_11481
3823,688.0,9_44_31_11484
3824,689.0,9_44_31_11486
3825,690.0,9_44_31_11490
3826,691.0,9_44_31_11492
3827,692.0,9_44_31_11494
3828,693.0,9_44_31_11497
3829,694.0,9_44_31_11499
3830,695.0,9_44_31_11501
3831,696.0,9_44_31_11505
3832,697.0,9_44_31_11507
3833,698.0,9_44_31_11510
3834,699.0,9_44_31_11512
3835,700.0,9_44_31_11514
3836,701.0,9_44_31_11518
3837,702.0,9_44_31_11520
3838,703.0,9_44_31_11522
3839,704.0,9_44_31_11526
3840,705.0,9_44_31_11529
3841,706.0,9_44_31_11532
3842,707.0,9_44_31_11535
3843,708.0,9_44_31_11537
3844,709.0,9_44_31_11538
3845,710.0,9_44_31_11540
3846,711.0,9_44_31_11543
3847,712.0,9_44_31_11547
3848,713.0,9_44_31_11549
3849,714.0,9_44_31_11551
3850,715.0,9_44_31_11555
3851,716.0,9_44_31_11557
3852,717.0,9_44_31_11559
3853,718.0,9_44_31_11562
3854,719.0,9_44_31_11565
3855,720.0,9_44_31_11567
3856,721.0,9_44_31_11569
3857,722.0,9_44_31_11571
3858,723.0,9_44_31_11575
3859,724.0,9_44_31_11581
3860,725.0,9_44_31_11586
3861,726.0,9_44_31_11588
3862,727.0,9_44_31_11590
3863,728.0,9_44_31_11592
3864,729.0,9_44_31_11595
3865,730.0,9_44_31_11597
3866,731.0,9_44_31_11599
3867,732.0,9_44_31_11601
3868,733.0,9_44_31_11602
3869,734.0,9_44_31_11604
3870,735.0,9_44_31_11606
3871,736.0,9_44_31_11608
