position,GSR_Reading,Time_Stamp
0,NaN,9_47_3_589
1,293.0,9_47_3_602
2,2844.0,9_47_3_619
3,545.0,9_47_3_635
4,546.0,9_47_3_652
5,547.0,9_47_3_668
6,548.0,9_47_3_686
7,549.0,9_47_3_702
8,550.0,9_47_3_718
9,551.0,9_47_3_736
10,552.0,9_47_3_752
11,553.0,9_47_3_768
12,554.0,9_47_4_785
13,555.0,9_47_4_802
14,556.0,9_47_4_818
15,557.0,9_47_4_835
16,558.0,9_47_4_851
17,559.0,9_47_4_869
18,560.0,9_47_4_885
19,561.0,9_47_4_902
20,NaN,9_47_4_919
21,537.0,9_47_4_935
22,538.0,9_47_4_951
23,539.0,9_47_4_968
24,540.0,9_47_4_985
25,541.0,9_47_4_1002
26,542.0,9_47_4_1018
27,543.0,9_47_4_1035
28,544.0,9_47_4_1052
29,545.0,9_47_4_1068
30,546.0,9_47_4_1085
31,547.0,9_47_4_1101
32,548.0,9_47_4_1118
33,549.0,9_47_4_1135
34,550.0,9_47_4_1152
35,551.0,9_47_4_1169
36,552.0,9_47_4_1185
37,553.0,9_47_4_1202
38,554.0,9_47_4_1218
39,555.0,9_47_4_1235
40,556.0,9_47_4_1252
41,557.0,9_47_4_1268
42,558.0,9_47_4_1285
43,559.0,9_47_4_1302
44,560.0,9_47_4_1319
45,561.0,9_47_4_1335
46,NaN,9_47_4_1352
47,537.0,9_47_4_1368
48,538.0,9_47_4_1385
49,539.0,9_47_4_1402
50,540.0,9_47_4_1418
51,541.0,9_47_4_1436
52,542.0,9_47_4_1452
53,543.0,9_47_4_1468
54,544.0,9_47_4_1485
55,545.0,9_47_4_1502
56,546.0,9_47_4_1518
57,547.0,9_47_4_1535
58,548.0,9_47_4_1552
59,549.0,9_47_4_1568
60,550.0,9_47_4_1585
61,551.0,9_47_4_1602
62,552.0,9_47_4_1619
63,553.0,9_47_4_1635
64,554.0,9_47_4_1651
65,555.0,9_47_4_1669
66,556.0,9_47_4_1686
67,557.0,9_47_4_1702
68,558.0,9_47_4_1718
69,559.0,9_47_4_1735
70,560.0,9_47_4_1751
71,561.0,9_47_4_1768
72,NaN,9_47_5_1902
73,1.0,9_47_5_1918
74,2.0,9_47_5_1936
75,3.0,9_47_5_1952
76,4.0,9_47_5_1968
77,5.0,9_47_5_1985
78,6.0,9_47_5_2002
79,7.0,9_47_5_2019
80,8.0,9_47_5_2035
81,9.0,9_47_5_2052
82,10.0,9_47_5_2069
83,11.0,9_47_5_2086
84,12.0,9_47_5_2102
85,13.0,9_47_5_2119
86,14.0,9_47_5_2135
87,15.0,9_47_5_2152
88,16.0,9_47_5_2168
89,17.0,9_47_5_2185
90,18.0,9_47_5_2202
91,19.0,9_47_5_2218
92,20.0,9_47_5_2235
93,21.0,9_47_5_2252
94,22.0,9_47_5_2268
95,23.0,9_47_5_2285
96,24.0,9_47_5_2302
97,25.0,9_47_5_2319
98,26.0,9_47_5_2335
99,27.0,9_47_5_2352
100,28.0,9_47_5_2369
101,29.0,9_47_5_2386
102,30.0,9_47_5_2401
103,31.0,9_47_5_2418
104,32.0,9_47_5_2435
105,33.0,9_47_5_2452
106,34.0,9_47_5_2469
107,35.0,9_47_5_2486
108,36.0,9_47_5_2502
109,37.0,9_47_5_2518
110,38.0,9_47_5_2535
111,39.0,9_47_5_2552
112,40.0,9_47_5_2569
113,41.0,9_47_5_2585
114,42.0,9_47_5_2602
115,43.0,9_47_5_2618
116,44.0,9_47_5_2635
117,45.0,9_47_5_2651
118,46.0,9_47_5_2668
119,47.0,9_47_5_2685
120,48.0,9_47_5_2702
121,49.0,9_47_5_2719
122,50.0,9_47_5_2735
123,51.0,9_47_5_2752
124,52.0,9_47_5_2769
125,53.0,9_47_6_2785
126,54.0,9_47_6_2802
127,55.0,9_47_6_2818
128,56.0,9_47_6_2835
129,57.0,9_47_6_2851
130,58.0,9_47_6_2868
131,59.0,9_47_6_2885
132,60.0,9_47_6_2902
133,61.0,9_47_6_2919
134,62.0,9_47_6_2935
135,63.0,9_47_6_2952
136,64.0,9_47_6_2969
137,65.0,9_47_6_2985
138,66.0,9_47_6_3002
139,67.0,9_47_6_3019
140,68.0,9_47_6_3035
141,69.0,9_47_6_3052
142,70.0,9_47_6_3068
143,71.0,9_47_6_3085
144,72.0,9_47_6_3102
145,73.0,9_47_6_3118
146,74.0,9_47_6_3135
147,75.0,9_47_6_3152
148,76.0,9_47_6_3169
149,77.0,9_47_6_3185
150,78.0,9_47_6_3202
151,79.0,9_47_6_3218
152,80.0,9_47_6_3235
153,81.0,9_47_6_3252
154,82.0,9_47_6_3269
155,83.0,9_47_6_3286
156,84.0,9_47_6_3302
157,85.0,9_47_6_3318
158,86.0,9_47_6_3335
159,87.0,9_47_6_3352
160,88.0,9_47_6_3369
161,89.0,9_47_6_3386
162,90.0,9_47_6_3401
163,91.0,9_47_6_3418
164,92.0,9_47_6_3435
165,93.0,9_47_6_3452
166,94.0,9_47_6_3468
167,95.0,9_47_6_3485
168,96.0,9_47_6_3502
169,97.0,9_47_6_3519
170,98.0,9_47_6_3535
171,99.0,9_47_6_3552
172,100.0,9_47_6_3568
173,101.0,9_47_6_3585
174,102.0,9_47_6_3602
175,103.0,9_47_6_3619
176,104.0,9_47_6_3635
177,105.0,9_47_6_3652
178,106.0,9_47_6_3669
179,107.0,9_47_6_3685
180,108.0,9_47_6_3701
181,109.0,9_47_6_3719
182,110.0,9_47_6_3735
183,111.0,9_47_6_3752
184,112.0,9_47_6_3769
185,113.0,9_47_7_3785
186,114.0,9_47_7_3802
187,115.0,9_47_7_3819
188,116.0,9_47_7_3835
189,117.0,9_47_7_3852
190,118.0,9_47_7_3868
191,119.0,9_47_7_3885
192,120.0,9_47_7_3902
193,121.0,9_47_7_3918
194,122.0,9_47_7_3935
195,123.0,9_47_7_3951
196,124.0,9_47_7_3968
197,125.0,9_47_7_3985
198,126.0,9_47_7_4002
199,127.0,9_47_7_4018
200,128.0,9_47_7_4035
201,129.0,9_47_7_4052
202,130.0,9_47_7_4068
203,131.0,9_47_7_4085
204,132.0,9_47_7_4101
205,133.0,9_47_7_4118
206,134.0,9_47_7_4135
207,135.0,9_47_7_4152
208,136.0,9_47_7_4168
209,137.0,9_47_7_4186
210,138.0,9_47_7_4202
211,139.0,9_47_7_4219
212,140.0,9_47_7_4243
213,141.0,9_47_7_4260
214,142.0,9_47_7_4276
215,143.0,9_47_7_4292
216,144.0,9_47_7_4309
217,145.0,9_47_7_4326
218,146.0,9_47_7_4342
219,147.0,9_47_7_4359
220,148.0,9_47_7_4376
221,149.0,9_47_7_4392
222,150.0,9_47_7_4409
223,151.0,9_47_7_4426
224,152.0,9_47_7_4442
225,153.0,9_47_7_4459
226,154.0,9_47_7_4476
227,155.0,9_47_7_4492
228,156.0,9_47_7_4509
229,157.0,9_47_7_4526
230,158.0,9_47_7_4543
231,159.0,9_47_7_4559
232,160.0,9_47_7_4576
233,161.0,9_47_7_4592
234,162.0,9_47_7_4609
235,163.0,9_47_7_4626
236,164.0,9_47_7_4643
237,165.0,9_47_7_4659
238,166.0,9_47_7_4676
239,167.0,9_47_7_4692
240,168.0,9_47_7_4709
241,169.0,9_47_7_4726
242,170.0,9_47_7_4743
243,171.0,9_47_7_4759
244,172.0,9_47_7_4776
245,173.0,9_47_8_4793
246,174.0,9_47_8_4810
247,175.0,9_47_8_4826
248,176.0,9_47_8_4842
249,177.0,9_47_8_4859
250,178.0,9_47_8_4876
251,179.0,9_47_8_4893
252,180.0,9_47_8_4910
253,181.0,9_47_8_4926
254,182.0,9_47_8_4942
255,183.0,9_47_8_4960
256,184.0,9_47_8_4975
257,185.0,9_47_8_4992
258,186.0,9_47_8_5009
259,187.0,9_47_8_5026
260,188.0,9_47_8_5042
261,189.0,9_47_8_5059
262,190.0,9_47_8_5076
263,191.0,9_47_8_5093
264,192.0,9_47_8_5110
265,193.0,9_47_8_5135
266,194.0,9_47_8_5152
267,195.0,9_47_8_5168
268,196.0,9_47_8_5184
269,197.0,9_47_8_5201
270,198.0,9_47_8_5217
271,199.0,9_47_8_5234
272,200.0,9_47_8_5251
273,201.0,9_47_8_5268
274,202.0,9_47_8_5285
275,203.0,9_47_8_5301
276,204.0,9_47_8_5318
277,205.0,9_47_8_5334
278,206.0,9_47_8_5352
279,207.0,9_47_8_5368
280,208.0,9_47_8_5385
281,209.0,9_47_8_5402
282,210.0,9_47_8_5418
283,211.0,9_47_8_5435
284,212.0,9_47_8_5451
285,213.0,9_47_8_5468
286,214.0,9_47_8_5485
287,215.0,9_47_8_5501
288,216.0,9_47_8_5518
289,217.0,9_47_8_5534
290,218.0,9_47_8_5551
291,219.0,9_47_8_5568
292,220.0,9_47_8_5585
293,221.0,9_47_8_5602
294,222.0,9_47_8_5618
295,223.0,9_47_8_5635
296,224.0,9_47_8_5652
297,225.0,9_47_8_5668
298,226.0,9_47_8_5685
299,227.0,9_47_8_5702
300,228.0,9_47_8_5718
301,229.0,9_47_8_5734
302,230.0,9_47_8_5751
303,231.0,9_47_8_5768
304,232.0,9_47_9_5784
305,233.0,9_47_9_5802
306,234.0,9_47_9_5817
307,235.0,9_47_9_5835
308,236.0,9_47_9_5852
309,237.0,9_47_9_5868
310,238.0,9_47_9_5885
311,239.0,9_47_9_5901
312,240.0,9_47_9_5917
313,241.0,9_47_9_5935
314,242.0,9_47_9_5951
315,243.0,9_47_9_5968
316,244.0,9_47_9_5984
317,245.0,9_47_9_6001
318,246.0,9_47_9_6018
319,247.0,9_47_9_6034
320,248.0,9_47_9_6052
321,249.0,9_47_9_6068
322,250.0,9_47_9_6085
323,251.0,9_47_9_6101
324,252.0,9_47_9_6118
325,253.0,9_47_9_6134
326,254.0,9_47_9_6151
327,255.0,9_47_9_6168
328,256.0,9_47_9_6184
329,257.0,9_47_9_6201
330,258.0,9_47_9_6218
331,259.0,9_47_9_6235
332,260.0,9_47_9_6252
333,261.0,9_47_9_6268
334,262.0,9_47_9_6285
335,263.0,9_47_9_6302
336,264.0,9_47_9_6318
337,265.0,9_47_9_6335
338,266.0,9_47_9_6351
339,267.0,9_47_9_6368
340,268.0,9_47_9_6385
341,269.0,9_47_9_6401
342,270.0,9_47_9_6418
343,271.0,9_47_9_6434
344,272.0,9_47_9_6451
345,273.0,9_47_9_6468
346,274.0,9_47_9_6485
347,275.0,9_47_9_6502
348,276.0,9_47_9_6518
349,277.0,9_47_9_6535
350,278.0,9_47_9_6552
351,279.0,9_47_9_6569
352,280.0,9_47_9_6584
353,281.0,9_47_9_6601
354,282.0,9_47_9_6618
355,283.0,9_47_9_6635
356,284.0,9_47_9_6651
357,285.0,9_47_9_6668
358,286.0,9_47_9_6685
359,287.0,9_47_9_6701
360,288.0,9_47_9_6719
361,289.0,9_47_9_6734
362,290.0,9_47_9_6751
363,291.0,9_47_9_6768
364,292.0,9_47_10_6785
365,293.0,9_47_10_6801
366,294.0,9_47_10_6818
367,295.0,9_47_10_6835
368,296.0,9_47_10_6851
369,297.0,9_47_10_6868
370,298.0,9_47_10_6885
371,299.0,9_47_10_6902
372,300.0,9_47_10_6917
373,301.0,9_47_10_6934
374,302.0,9_47_10_6951
375,303.0,9_47_10_6968
376,304.0,9_47_10_6985
377,305.0,9_47_10_7002
378,306.0,9_47_10_7019
379,307.0,9_47_10_7034
380,308.0,9_47_10_7051
381,309.0,9_47_10_7068
382,310.0,9_47_10_7085
383,311.0,9_47_10_7102
384,312.0,9_47_10_7118
385,313.0,9_47_10_7135
386,314.0,9_47_10_7151
387,315.0,9_47_10_7168
388,316.0,9_47_10_7185
389,317.0,9_47_10_7201
390,318.0,9_47_10_7218
391,319.0,9_47_10_7234
392,320.0,9_47_10_7251
393,321.0,9_47_10_7268
394,322.0,9_47_10_7285
395,323.0,9_47_10_7301
396,324.0,9_47_10_7318
397,325.0,9_47_10_7335
398,326.0,9_47_10_7352
399,327.0,9_47_10_7368
400,328.0,9_47_10_7385
401,329.0,9_47_10_7402
402,330.0,9_47_10_7418
403,331.0,9_47_10_7434
404,332.0,9_47_10_7451
405,333.0,9_47_10_7468
406,334.0,9_47_10_7485
407,335.0,9_47_10_7501
408,336.0,9_47_10_7518
409,337.0,9_47_10_7535
410,338.0,9_47_10_7551
411,339.0,9_47_10_7568
412,340.0,9_47_10_7585
413,341.0,9_47_10_7601
414,342.0,9_47_10_7618
415,343.0,9_47_10_7635
416,344.0,9_47_10_7652
417,345.0,9_47_10_7668
418,346.0,9_47_10_7685
419,347.0,9_47_10_7701
420,348.0,9_47_10_7718
421,349.0,9_47_10_7734
422,350.0,9_47_10_7751
423,351.0,9_47_10_7768
424,352.0,9_47_11_7785
425,353.0,9_47_11_7802
426,354.0,9_47_11_7818
427,355.0,9_47_11_7835
428,356.0,9_47_11_7851
429,357.0,9_47_11_7868
430,358.0,9_47_11_7884
431,359.0,9_47_11_7901
432,360.0,9_47_11_7918
433,361.0,9_47_11_7935
434,362.0,9_47_11_7951
435,363.0,9_47_11_7968
436,364.0,9_47_11_7985
437,365.0,9_47_11_8001
438,366.0,9_47_11_8018
439,367.0,9_47_11_8035
440,368.0,9_47_11_8051
441,369.0,9_47_11_8068
442,370.0,9_47_11_8085
443,371.0,9_47_11_8102
444,372.0,9_47_11_8118
445,373.0,9_47_11_8135
446,374.0,9_47_11_8151
447,375.0,9_47_11_8168
448,376.0,9_47_11_8185
449,377.0,9_47_11_8201
450,378.0,9_47_11_8218
451,379.0,9_47_11_8235
452,380.0,9_47_11_8252
453,381.0,9_47_11_8268
454,382.0,9_47_11_8285
455,383.0,9_47_11_8302
456,384.0,9_47_11_8318
457,385.0,9_47_11_8335
458,386.0,9_47_11_8352
459,387.0,9_47_11_8368
460,388.0,9_47_11_8385
461,389.0,9_47_11_8402
462,390.0,9_47_11_8418
463,391.0,9_47_11_8435
464,392.0,9_47_11_8452
465,393.0,9_47_11_8468
466,394.0,9_47_11_8485
467,395.0,9_47_11_8502
468,396.0,9_47_11_8518
469,397.0,9_47_11_8534
470,398.0,9_47_11_8552
471,399.0,9_47_11_8568
472,400.0,9_47_11_8585
473,401.0,9_47_11_8602
474,402.0,9_47_11_8618
475,403.0,9_47_11_8634
476,404.0,9_47_11_8651
477,405.0,9_47_11_8668
478,406.0,9_47_11_8685
479,407.0,9_47_11_8701
480,408.0,9_47_11_8718
481,409.0,9_47_11_8735
482,410.0,9_47_11_8752
483,411.0,9_47_11_8768
484,412.0,9_47_12_8785
485,413.0,9_47_12_8802
486,414.0,9_47_12_8819
487,415.0,9_47_12_8837
488,416.0,9_47_12_8852
489,417.0,9_47_12_8868
490,418.0,9_47_12_8885
491,419.0,9_47_12_8902
492,420.0,9_47_12_8918
493,421.0,9_47_12_8935
494,422.0,9_47_12_8951
495,423.0,9_47_12_8968
496,424.0,9_47_12_8984
497,425.0,9_47_12_9001
498,426.0,9_47_12_9018
499,427.0,9_47_12_9035
500,428.0,9_47_12_9051
501,429.0,9_47_12_9068
502,430.0,9_47_12_9084
503,431.0,9_47_12_9102
504,432.0,9_47_12_9118
505,433.0,9_47_12_9134
506,434.0,9_47_12_9151
507,435.0,9_47_12_9168
508,436.0,9_47_12_9185
509,437.0,9_47_12_9201
510,438.0,9_47_12_9218
511,439.0,9_47_12_9251
512,440.0,9_47_12_9269
513,441.0,9_47_12_9285
514,442.0,9_47_12_9301
515,443.0,9_47_12_9318
516,444.0,9_47_12_9335
517,445.0,9_47_12_9352
518,446.0,9_47_12_9368
519,447.0,9_47_12_9385
520,448.0,9_47_12_9402
521,449.0,9_47_12_9418
522,450.0,9_47_12_9435
523,451.0,9_47_12_9452
524,452.0,9_47_12_9468
525,453.0,9_47_12_9484
526,454.0,9_47_12_9502
527,455.0,9_47_12_9518
528,456.0,9_47_12_9535
529,457.0,9_47_12_9551
530,458.0,9_47_12_9568
531,459.0,9_47_12_9584
532,460.0,9_47_12_9602
533,461.0,9_47_12_9619
534,462.0,9_47_12_9635
535,463.0,9_47_12_9652
536,464.0,9_47_12_9668
537,465.0,9_47_12_9685
538,466.0,9_47_12_9702
539,467.0,9_47_12_9718
540,468.0,9_47_12_9734
541,469.0,9_47_12_9752
542,470.0,9_47_12_9768
543,471.0,9_47_13_9785
544,472.0,9_47_13_9801
545,473.0,9_47_13_9818
546,474.0,9_47_13_9835
547,475.0,9_47_13_9852
548,476.0,9_47_13_9868
549,477.0,9_47_13_9885
550,478.0,9_47_13_9902
551,479.0,9_47_13_9918
552,480.0,9_47_13_9935
553,481.0,9_47_13_9951
554,482.0,9_47_13_9968
555,483.0,9_47_13_9984
556,484.0,9_47_13_10002
557,485.0,9_47_13_10019
558,486.0,9_47_13_10035
559,487.0,9_47_13_10052
560,488.0,9_47_13_10068
561,489.0,9_47_13_10085
562,490.0,9_47_13_10101
563,491.0,9_47_13_10118
564,492.0,9_47_13_10135
565,493.0,9_47_13_10151
566,494.0,9_47_13_10168
567,495.0,9_47_13_10185
568,496.0,9_47_13_10202
569,497.0,9_47_13_10218
570,498.0,9_47_13_10235
571,499.0,9_47_13_10252
572,500.0,9_47_13_10269
573,501.0,9_47_13_10285
574,502.0,9_47_13_10301
575,503.0,9_47_13_10319
576,504.0,9_47_13_10335
577,505.0,9_47_13_10351
578,506.0,9_47_13_10369
579,507.0,9_47_13_10385
580,508.0,9_47_13_10402
581,509.0,9_47_13_10418
582,510.0,9_47_13_10435
583,511.0,9_47_13_10451
584,512.0,9_47_13_10468
585,513.0,9_47_13_10485
586,514.0,9_47_13_10501
587,515.0,9_47_13_10519
588,516.0,9_47_13_10535
589,517.0,9_47_13_10551
590,518.0,9_47_13_10569
591,519.0,9_47_13_10585
592,520.0,9_47_13_10602
593,521.0,9_47_13_10618
594,522.0,9_47_13_10635
595,523.0,9_47_13_10652
596,524.0,9_47_13_10668
597,525.0,9_47_13_10684
598,526.0,9_47_13_10701
599,527.0,9_47_13_10718
600,528.0,9_47_13_10735
601,529.0,9_47_13_10752
602,530.0,9_47_13_10768
603,531.0,9_47_14_10785
604,532.0,9_47_14_10802
605,533.0,9_47_14_10818
606,534.0,9_47_14_10835
607,535.0,9_47_14_10852
608,536.0,9_47_14_10869
609,537.0,9_47_14_10884
610,538.0,9_47_14_10901
611,539.0,9_47_14_10918
612,540.0,9_47_14_10935
613,541.0,9_47_14_10952
614,542.0,9_47_14_10968
615,543.0,9_47_14_10985
616,544.0,9_47_14_11001
617,545.0,9_47_14_11018
618,546.0,9_47_14_11035
619,547.0,9_47_14_11052
620,548.0,9_47_14_11068
621,549.0,9_47_14_11085
622,550.0,9_47_14_11102
623,551.0,9_47_14_11118
624,552.0,9_47_14_11134
625,553.0,9_47_14_11151
626,554.0,9_47_14_11168
627,555.0,9_47_14_11185
628,556.0,9_47_14_11202
629,557.0,9_47_14_11219
630,558.0,9_47_14_11235
631,559.0,9_47_14_11252
632,560.0,9_47_14_11269
633,561.0,9_47_14_11285
634,562.0,9_47_14_11302
635,563.0,9_47_14_11318
636,564.0,9_47_14_11335
637,565.0,9_47_14_11351
638,566.0,9_47_14_11368
639,567.0,9_47_14_11385
640,568.0,9_47_14_11402
641,569.0,9_47_14_11418
642,570.0,9_47_14_11435
643,571.0,9_47_14_11452
644,572.0,9_47_14_11468
645,573.0,9_47_14_11485
646,574.0,9_47_14_11502
647,575.0,9_47_14_11519
648,576.0,9_47_14_11535
649,577.0,9_47_14_11552
650,578.0,9_47_14_11568
651,579.0,9_47_14_11585
652,580.0,9_47_14_11601
653,581.0,9_47_14_11618
654,582.0,9_47_14_11635
655,583.0,9_47_14_11652
656,584.0,9_47_14_11668
657,585.0,9_47_14_11685
658,586.0,9_47_14_11702
659,587.0,9_47_14_11718
660,588.0,9_47_14_11735
661,589.0,9_47_14_11752
662,590.0,9_47_14_11769
663,591.0,9_47_15_11785
664,592.0,9_47_15_11802
665,593.0,9_47_15_11819
666,594.0,9_47_15_11835
667,595.0,9_47_15_11852
668,596.0,9_47_15_11868
669,597.0,9_47_15_11885
670,598.0,9_47_15_11902
671,599.0,9_47_15_11918
672,600.0,9_47_15_11934
673,601.0,9_47_15_11951
674,602.0,9_47_15_11969
675,603.0,9_47_15_11985
676,604.0,9_47_15_12001
677,605.0,9_47_15_12018
678,606.0,9_47_15_12035
679,607.0,9_47_15_12052
680,608.0,9_47_15_12068
681,609.0,9_47_15_12085
682,610.0,9_47_15_12102
683,611.0,9_47_15_12118
684,612.0,9_47_15_12134
685,613.0,9_47_15_12151
686,614.0,9_47_15_12168
687,615.0,9_47_15_12185
688,616.0,9_47_15_12201
689,617.0,9_47_15_12219
690,618.0,9_47_15_12235
691,619.0,9_47_15_12251
692,620.0,9_47_15_12268
693,621.0,9_47_15_12285
694,622.0,9_47_15_12302
695,623.0,9_47_15_12319
696,624.0,9_47_15_12334
697,625.0,9_47_15_12351
698,626.0,9_47_15_12368
699,627.0,9_47_15_12385
700,628.0,9_47_15_12401
701,629.0,9_47_15_12418
702,630.0,9_47_15_12435
703,631.0,9_47_15_12451
704,632.0,9_47_15_12468
705,633.0,9_47_15_12485
706,634.0,9_47_15_12502
707,635.0,9_47_15_12519
708,636.0,9_47_15_12535
709,637.0,9_47_15_12551
710,638.0,9_47_15_12568
711,639.0,9_47_15_12585
712,640.0,9_47_15_12602
713,641.0,9_47_15_12619
714,642.0,9_47_15_12634
715,643.0,9_47_15_12651
716,644.0,9_47_15_12668
717,645.0,9_47_15_12685
718,646.0,9_47_15_12701
719,647.0,9_47_15_12718
720,648.0,9_47_15_12735
721,649.0,9_47_15_12752
722,650.0,9_47_15_12769
723,651.0,9_47_16_12785
724,652.0,9_47_16_12802
725,653.0,9_47_16_12818
726,654.0,9_47_16_12835
727,655.0,9_47_16_12852
728,656.0,9_47_16_12868
729,657.0,9_47_16_12885
730,658.0,9_47_16_12902
731,659.0,9_47_16_12918
732,660.0,9_47_16_12935
733,661.0,9_47_16_12952
734,662.0,9_47_16_12968
735,663.0,9_47_16_12985
736,664.0,9_47_16_13002
737,665.0,9_47_16_13018
738,666.0,9_47_16_13035
739,667.0,9_47_16_13051
740,668.0,9_47_16_13068
741,669.0,9_47_16_13085
742,670.0,9_47_16_13101
743,671.0,9_47_16_13118
744,672.0,9_47_16_13135
745,673.0,9_47_16_13158
746,674.0,9_47_16_13174
747,675.0,9_47_16_13191
748,676.0,9_47_16_13207
749,677.0,9_47_16_13225
750,678.0,9_47_16_13240
751,679.0,9_47_16_13258
752,680.0,9_47_16_13275
753,681.0,9_47_16_13291
754,682.0,9_47_16_13308
755,683.0,9_47_16_13324
756,684.0,9_47_16_13341
757,685.0,9_47_16_13357
758,686.0,9_47_16_13374
759,687.0,9_47_16_13390
760,688.0,9_47_16_13407
761,689.0,9_47_16_13424
762,690.0,9_47_16_13441
763,691.0,9_47_16_13457
764,692.0,9_47_16_13474
765,693.0,9_47_16_13491
766,694.0,9_47_16_13508
767,695.0,9_47_16_13524
768,696.0,9_47_16_13541
769,697.0,9_47_16_13558
770,698.0,9_47_16_13574
771,699.0,9_47_16_13590
772,700.0,9_47_16_13607
773,701.0,9_47_16_13624
774,702.0,9_47_16_13641
775,703.0,9_47_16_13658
776,704.0,9_47_16_13674
777,705.0,9_47_16_13691
778,706.0,9_47_16_13708
779,707.0,9_47_16_13724
780,708.0,9_47_16_13741
781,709.0,9_47_16_13757
782,710.0,9_47_16_13774
783,711.0,9_47_17_13791
784,712.0,9_47_17_13807
785,713.0,9_47_17_13824
786,714.0,9_47_17_13841
787,715.0,9_47_17_13858
788,716.0,9_47_17_13874
789,717.0,9_47_17_13891
790,718.0,9_47_17_13908
791,719.0,9_47_17_13925
792,720.0,9_47_17_13940
793,721.0,9_47_17_13958
794,722.0,9_47_17_13974
795,723.0,9_47_17_13991
796,724.0,9_47_17_14007
797,725.0,9_47_17_14024
798,726.0,9_47_17_14041
799,727.0,9_47_17_14058
800,728.0,9_47_17_14074
801,729.0,9_47_17_14091
802,730.0,9_47_17_14108
803,731.0,9_47_17_14124
804,732.0,9_47_17_14141
805,733.0,9_47_17_14158
806,734.0,9_47_17_14174
807,735.0,9_47_17_14191
808,736.0,9_47_17_14208
809,737.0,9_47_17_14225
810,738.0,9_47_17_14252
811,739.0,9_47_17_14268
812,740.0,9_47_17_14285
813,741.0,9_47_17_14301
814,742.0,9_47_17_14318
815,743.0,9_47_17_14335
816,744.0,9_47_17_14351
817,745.0,9_47_17_14368
818,746.0,9_47_17_14385
819,747.0,9_47_17_14402
820,748.0,9_47_17_14418
821,749.0,9_47_17_14435
822,750.0,9_47_17_14451
823,751.0,9_47_17_14468
824,752.0,9_47_17_14485
825,753.0,9_47_17_14502
826,754.0,9_47_17_14518
827,755.0,9_47_17_14535
828,756.0,9_47_17_14551
829,757.0,9_47_17_14568
830,758.0,9_47_17_14585
831,759.0,9_47_17_14602
832,760.0,9_47_17_14618
833,761.0,9_47_17_14635
834,762.0,9_47_17_14651
835,763.0,9_47_17_14668
836,764.0,9_47_17_14685
837,765.0,9_47_17_14702
838,766.0,9_47_17_14718
839,767.0,9_47_17_14735
840,768.0,9_47_17_14751
841,769.0,9_47_17_14768
842,770.0,9_47_18_14785
843,771.0,9_47_18_14802
844,772.0,9_47_18_14818
845,773.0,9_47_18_14835
846,774.0,9_47_18_14851
847,775.0,9_47_18_14869
848,776.0,9_47_18_14885
849,777.0,9_47_18_14902
850,778.0,9_47_18_14919
851,779.0,9_47_18_14935
852,780.0,9_47_18_14952
853,781.0,9_47_18_14968
854,782.0,9_47_18_14985
855,783.0,9_47_18_15002
856,784.0,9_47_18_15019
857,785.0,9_47_18_15035
858,786.0,9_47_18_15052
859,787.0,9_47_18_15069
860,788.0,9_47_18_15085
861,789.0,9_47_18_15102
862,790.0,9_47_18_15119
863,791.0,9_47_18_15135
864,792.0,9_47_18_15152
865,793.0,9_47_18_15168
866,794.0,9_47_18_15185
867,795.0,9_47_18_15202
868,796.0,9_47_18_15219
869,797.0,9_47_18_15235
870,798.0,9_47_18_15251
871,799.0,9_47_18_15268
872,800.0,9_47_18_15285
873,801.0,9_47_18_15302
874,802.0,9_47_18_15318
875,803.0,9_47_18_15335
876,804.0,9_47_18_15352
877,805.0,9_47_18_15368
878,806.0,9_47_18_15385
879,807.0,9_47_18_15402
880,808.0,9_47_18_15418
881,809.0,9_47_18_15435
882,810.0,9_47_18_15452
883,811.0,9_47_18_15469
884,812.0,9_47_18_15485
885,813.0,9_47_18_15502
886,814.0,9_47_18_15518
887,815.0,9_47_18_15535
888,816.0,9_47_18_15552
889,817.0,9_47_18_15568
890,818.0,9_47_18_15585
891,819.0,9_47_18_15602
892,820.0,9_47_18_15618
893,821.0,9_47_18_15635
894,822.0,9_47_18_15651
895,823.0,9_47_18_15668
896,824.0,9_47_18_15685
897,825.0,9_47_18_15702
898,826.0,9_47_18_15718
899,827.0,9_47_18_15735
900,828.0,9_47_18_15754
901,829.0,9_47_18_15768
902,830.0,9_47_19_15785
903,831.0,9_47_19_15802
904,832.0,9_47_19_15818
905,833.0,9_47_19_15835
906,834.0,9_47_19_15851
907,835.0,9_47_19_15868
908,836.0,9_47_19_15885
909,837.0,9_47_19_15902
910,838.0,9_47_19_15918
911,839.0,9_47_19_15935
912,840.0,9_47_19_15952
913,841.0,9_47_19_15968
914,842.0,9_47_19_15985
915,843.0,9_47_19_16002
916,844.0,9_47_19_16018
917,845.0,9_47_19_16035
918,846.0,9_47_19_16052
919,847.0,9_47_19_16069
920,848.0,9_47_19_16085
921,849.0,9_47_19_16102
922,850.0,9_47_19_16118
923,851.0,9_47_19_16135
924,852.0,9_47_19_16151
925,853.0,9_47_19_16168
926,854.0,9_47_19_16185
927,855.0,9_47_19_16202
928,856.0,9_47_19_16218
929,857.0,9_47_19_16235
930,858.0,9_47_19_16252
931,859.0,9_47_19_16269
932,860.0,9_47_19_16285
933,861.0,9_47_19_16302
934,862.0,9_47_19_16319
935,863.0,9_47_19_16335
936,864.0,9_47_19_16352
937,865.0,9_47_19_16368
938,866.0,9_47_19_16385
939,867.0,9_47_19_16401
940,868.0,9_47_19_16419
941,869.0,9_47_19_16435
942,870.0,9_47_19_16451
943,871.0,9_47_19_16468
944,872.0,9_47_19_16485
945,873.0,9_47_19_16502
946,874.0,9_47_19_16518
947,875.0,9_47_19_16535
948,876.0,9_47_19_16552
949,877.0,9_47_19_16568
950,878.0,9_47_19_16585
951,879.0,9_47_19_16602
952,880.0,9_47_19_16618
953,881.0,9_47_19_16635
954,882.0,9_47_19_16651
955,883.0,9_47_19_16668
956,884.0,9_47_19_16685
957,885.0,9_47_19_16701
958,886.0,9_47_19_16718
959,887.0,9_47_19_16735
960,888.0,9_47_19_16752
961,889.0,9_47_19_16768
962,890.0,9_47_20_16785
963,891.0,9_47_20_16802
964,892.0,9_47_20_16818
965,893.0,9_47_20_16835
966,894.0,9_47_20_16852
967,895.0,9_47_20_16868
968,896.0,9_47_20_16885
969,897.0,9_47_20_16902
970,898.0,9_47_20_16918
971,899.0,9_47_20_16935
972,900.0,9_47_20_16952
973,901.0,9_47_20_16968
974,902.0,9_47_20_16985
975,903.0,9_47_20_17002
976,904.0,9_47_20_17018
977,905.0,9_47_20_17035
978,906.0,9_47_20_17052
979,907.0,9_47_20_17069
980,908.0,9_47_20_17086
981,909.0,9_47_20_17101
982,910.0,9_47_20_17119
983,911.0,9_47_20_17135
984,912.0,9_47_20_17151
985,913.0,9_47_20_17168
986,914.0,9_47_20_17185
987,915.0,9_47_20_17202
988,916.0,9_47_20_17218
989,917.0,9_47_20_17235
990,918.0,9_47_20_17252
991,919.0,9_47_20_17269
992,920.0,9_47_20_17285
993,921.0,9_47_20_17302
994,922.0,9_47_20_17319
995,923.0,9_47_20_17335
996,924.0,9_47_20_17351
997,925.0,9_47_20_17368
998,926.0,9_47_20_17385
999,927.0,9_47_20_17402
1000,928.0,9_47_20_17419
1001,929.0,9_47_20_17436
1002,930.0,9_47_20_17452
1003,931.0,9_47_20_17468
1004,932.0,9_47_20_17485
1005,933.0,9_47_20_17501
1006,934.0,9_47_20_17518
1007,935.0,9_47_20_17536
1008,936.0,9_47_20_17552
1009,937.0,9_47_20_17569
1010,938.0,9_47_20_17585
1011,939.0,9_47_20_17602
1012,940.0,9_47_20_17618
1013,941.0,9_47_20_17635
1014,942.0,9_47_20_17652
1015,943.0,9_47_20_17668
1016,944.0,9_47_20_17685
1017,945.0,9_47_20_17702
1018,946.0,9_47_20_17718
1019,947.0,9_47_20_17735
1020,948.0,9_47_20_17752
1021,949.0,9_47_20_17768
1022,950.0,9_47_21_17785
1023,951.0,9_47_21_17802
1024,952.0,9_47_21_17818
1025,953.0,9_47_21_17835
1026,954.0,9_47_21_17851
1027,955.0,9_47_21_17868
1028,956.0,9_47_21_17885
1029,957.0,9_47_21_17901
1030,958.0,9_47_21_17918
1031,959.0,9_47_21_17935
1032,960.0,9_47_21_17951
1033,961.0,9_47_21_17968
1034,962.0,9_47_21_17985
1035,963.0,9_47_21_18002
1036,964.0,9_47_21_18018
1037,965.0,9_47_21_18035
1038,966.0,9_47_21_18052
1039,967.0,9_47_21_18068
1040,968.0,9_47_21_18086
1041,969.0,9_47_21_18102
1042,970.0,9_47_21_18118
1043,971.0,9_47_21_18135
1044,972.0,9_47_21_18152
1045,973.0,9_47_21_18168
1046,974.0,9_47_21_18185
1047,975.0,9_47_21_18201
1048,976.0,9_47_21_18218
1049,977.0,9_47_21_18236
1050,978.0,9_47_21_18252
1051,979.0,9_47_21_18268
1052,980.0,9_47_21_18285
1053,981.0,9_47_21_18301
1054,982.0,9_47_21_18319
1055,983.0,9_47_21_18335
1056,984.0,9_47_21_18352
1057,985.0,9_47_21_18368
1058,986.0,9_47_21_18385
1059,987.0,9_47_21_18402
1060,988.0,9_47_21_18419
1061,989.0,9_47_21_18436
1062,990.0,9_47_21_18452
1063,991.0,9_47_21_18468
1064,992.0,9_47_21_18485
1065,993.0,9_47_21_18502
1066,994.0,9_47_21_18518
1067,995.0,9_47_21_18535
1068,996.0,9_47_21_18552
1069,997.0,9_47_21_18568
1070,998.0,9_47_21_18585
1071,999.0,9_47_21_18602
1072,1000.0,9_47_21_18619
1073,1001.0,9_47_21_18635
1074,1002.0,9_47_21_18652
1075,1003.0,9_47_21_18668
1076,1004.0,9_47_21_18685
1077,1005.0,9_47_21_18701
1078,1006.0,9_47_21_18719
1079,1007.0,9_47_21_18735
1080,1008.0,9_47_21_18752
1081,1009.0,9_47_21_18769
1082,1010.0,9_47_22_18785
1083,1011.0,9_47_22_18803
1084,1012.0,9_47_22_18819
1085,1013.0,9_47_22_18836
1086,1014.0,9_47_22_18852
1087,1015.0,9_47_22_18869
1088,1016.0,9_47_22_18886
1089,1017.0,9_47_22_18901
1090,1018.0,9_47_22_18918
1091,1019.0,9_47_22_18935
1092,1020.0,9_47_22_18951
1093,1021.0,9_47_22_18968
1094,1022.0,9_47_22_18985
1095,1023.0,9_47_22_19002
1096,0.0,9_47_22_19018
1097,1.0,9_47_22_19035
1098,2.0,9_47_22_19051
1099,3.0,9_47_22_19068
1100,4.0,9_47_22_19085
1101,5.0,9_47_22_19102
1102,6.0,9_47_22_19119
1103,7.0,9_47_22_19135
1104,8.0,9_47_22_19152
1105,9.0,9_47_22_19169
1106,10.0,9_47_22_19185
1107,11.0,9_47_22_19202
1108,12.0,9_47_22_19218
1109,13.0,9_47_22_19236
1110,14.0,9_47_22_19257
1111,15.0,9_47_22_19273
1112,16.0,9_47_22_19290
1113,17.0,9_47_22_19307
1114,18.0,9_47_22_19323
1115,19.0,9_47_22_19340
1116,20.0,9_47_22_19357
1117,21.0,9_47_22_19374
1118,22.0,9_47_22_19390
1119,23.0,9_47_22_19407
1120,24.0,9_47_22_19423
1121,25.0,9_47_22_19440
1122,26.0,9_47_22_19457
1123,27.0,9_47_22_19473
1124,28.0,9_47_22_19490
1125,29.0,9_47_22_19507
1126,30.0,9_47_22_19524
1127,31.0,9_47_22_19541
1128,32.0,9_47_22_19557
1129,33.0,9_47_22_19574
1130,34.0,9_47_22_19590
1131,35.0,9_47_22_19607
1132,36.0,9_47_22_19623
1133,37.0,9_47_22_19640
1134,38.0,9_47_22_19657
1135,39.0,9_47_22_19673
1136,40.0,9_47_22_19690
1137,41.0,9_47_22_19707
1138,42.0,9_47_22_19723
1139,43.0,9_47_22_19740
1140,44.0,9_47_22_19757
1141,45.0,9_47_22_19773
1142,46.0,9_47_23_19790
1143,47.0,9_47_23_19807
1144,48.0,9_47_23_19824
1145,49.0,9_47_23_19840
1146,50.0,9_47_23_19857
1147,51.0,9_47_23_19874
1148,52.0,9_47_23_19891
1149,53.0,9_47_23_19907
1150,54.0,9_47_23_19924
1151,55.0,9_47_23_19940
1152,56.0,9_47_23_19957
1153,57.0,9_47_23_19974
1154,58.0,9_47_23_19990
1155,59.0,9_47_23_20007
1156,60.0,9_47_23_20023
1157,61.0,9_47_23_20040
1158,62.0,9_47_23_20057
1159,63.0,9_47_23_20073
1160,64.0,9_47_23_20091
1161,65.0,9_47_23_20107
1162,66.0,9_47_23_20123
1163,67.0,9_47_23_20140
1164,68.0,9_47_23_20157
1165,69.0,9_47_23_20173
1166,70.0,9_47_23_20191
1167,71.0,9_47_23_20207
1168,72.0,9_47_23_20224
1169,73.0,9_47_23_20240
1170,74.0,9_47_23_20257
1171,75.0,9_47_23_20274
1172,76.0,9_47_23_20290
1173,77.0,9_47_23_20307
1174,78.0,9_47_23_20324
1175,79.0,9_47_23_20341
1176,80.0,9_47_23_20357
1177,81.0,9_47_23_20374
1178,82.0,9_47_23_20390
1179,83.0,9_47_23_20407
1180,84.0,9_47_23_20424
1181,85.0,9_47_23_20440
1182,86.0,9_47_23_20457
1183,87.0,9_47_23_20474
1184,88.0,9_47_23_20490
1185,89.0,9_47_23_20507
1186,90.0,9_47_23_20524
1187,91.0,9_47_23_20541
1188,92.0,9_47_23_20557
1189,93.0,9_47_23_20573
1190,94.0,9_47_23_20590
1191,95.0,9_47_23_20607
1192,96.0,9_47_23_20623
1193,97.0,9_47_23_20640
1194,98.0,9_47_23_20657
1195,99.0,9_47_23_20674
1196,100.0,9_47_23_20690
1197,101.0,9_47_23_20706
1198,102.0,9_47_23_20724
1199,103.0,9_47_23_20740
1200,104.0,9_47_23_20757
1201,105.0,9_47_23_20773
1202,106.0,9_47_24_20790
1203,107.0,9_47_24_20807
1204,108.0,9_47_24_20823
1205,109.0,9_47_24_20841
1206,110.0,9_47_24_20857
1207,111.0,9_47_24_20874
1208,112.0,9_47_24_20890
1209,113.0,9_47_24_20907
1210,114.0,9_47_24_20924
1211,115.0,9_47_24_20940
1212,116.0,9_47_24_20957
1213,117.0,9_47_24_20973
1214,118.0,9_47_24_20990
1215,119.0,9_47_24_21007
1216,120.0,9_47_24_21023
1217,121.0,9_47_24_21041
1218,122.0,9_47_24_21056
1219,123.0,9_47_24_21074
1220,124.0,9_47_24_21090
1221,125.0,9_47_24_21106
1222,126.0,9_47_24_21124
1223,127.0,9_47_24_21140
1224,128.0,9_47_24_21157
1225,129.0,9_47_24_21173
1226,130.0,9_47_24_21190
1227,131.0,9_47_24_21207
1228,132.0,9_47_24_21223
1229,133.0,9_47_24_21240
1230,134.0,9_47_24_21256
1231,135.0,9_47_24_21273
1232,136.0,9_47_24_21291
1233,137.0,9_47_24_21307
1234,138.0,9_47_24_21324
1235,139.0,9_47_24_21340
1236,140.0,9_47_24_21357
1237,141.0,9_47_24_21373
1238,142.0,9_47_24_21390
1239,143.0,9_47_24_21407
1240,144.0,9_47_24_21424
1241,145.0,9_47_24_21440
1242,146.0,9_47_24_21457
1243,147.0,9_47_24_21473
1244,148.0,9_47_24_21490
1245,149.0,9_47_24_21507
1246,150.0,9_47_24_21523
1247,151.0,9_47_24_21540
1248,152.0,9_47_24_21557
1249,153.0,9_47_24_21574
1250,154.0,9_47_24_21590
1251,155.0,9_47_24_21607
1252,156.0,9_47_24_21623
1253,157.0,9_47_24_21640
1254,158.0,9_47_24_21657
1255,159.0,9_47_24_21674
1256,160.0,9_47_24_21690
1257,161.0,9_47_24_21707
1258,162.0,9_47_24_21723
1259,163.0,9_47_24_21740
1260,164.0,9_47_24_21757
1261,165.0,9_47_24_21774
1262,166.0,9_47_25_21790
1263,167.0,9_47_25_21807
1264,168.0,9_47_25_21824
1265,169.0,9_47_25_21841
1266,170.0,9_47_25_21857
1267,171.0,9_47_25_21873
1268,172.0,9_47_25_21891
1269,173.0,9_47_25_21907
1270,174.0,9_47_25_21924
1271,175.0,9_47_25_21940
1272,176.0,9_47_25_21957
1273,177.0,9_47_25_21973
1274,178.0,9_47_25_21990
1275,179.0,9_47_25_22007
1276,180.0,9_47_25_22024
1277,181.0,9_47_25_22040
1278,182.0,9_47_25_22057
1279,183.0,9_47_25_22073
1280,184.0,9_47_25_22090
1281,185.0,9_47_25_22107
1282,186.0,9_47_25_22123
1283,187.0,9_47_25_22140
1284,188.0,9_47_25_22157
1285,189.0,9_47_25_22174
1286,190.0,9_47_25_22190
1287,191.0,9_47_25_22207
1288,192.0,9_47_25_22224
1289,193.0,9_47_25_22240
1290,194.0,9_47_25_22257
1291,195.0,9_47_25_22273
1292,196.0,9_47_25_22290
1293,197.0,9_47_25_22307
1294,198.0,9_47_25_22324
1295,199.0,9_47_25_22341
1296,200.0,9_47_25_22357
1297,201.0,9_47_25_22373
1298,202.0,9_47_25_22390
1299,203.0,9_47_25_22407
1300,204.0,9_47_25_22424
1301,205.0,9_47_25_22440
1302,206.0,9_47_25_22457
1303,207.0,9_47_25_22473
1304,208.0,9_47_25_22490
1305,209.0,9_47_25_22507
1306,210.0,9_47_25_22524
1307,211.0,9_47_25_22540
1308,212.0,9_47_25_22557
1309,213.0,9_47_25_22573
1310,214.0,9_47_25_22590
1311,215.0,9_47_25_22607
1312,216.0,9_47_25_22624
1313,217.0,9_47_25_22640
1314,218.0,9_47_25_22657
1315,219.0,9_47_25_22673
1316,220.0,9_47_25_22690
1317,221.0,9_47_25_22707
1318,222.0,9_47_25_22723
1319,223.0,9_47_25_22740
1320,224.0,9_47_25_22756
1321,225.0,9_47_25_22773
1322,226.0,9_47_26_22790
1323,227.0,9_47_26_22807
1324,228.0,9_47_26_22824
1325,229.0,9_47_26_22841
1326,230.0,9_47_26_22857
1327,231.0,9_47_26_22874
1328,232.0,9_47_26_22891
1329,233.0,9_47_26_22907
1330,234.0,9_47_26_22923
1331,235.0,9_47_26_22940
1332,236.0,9_47_26_22957
1333,237.0,9_47_26_22974
1334,238.0,9_47_26_22990
1335,239.0,9_47_26_23007
1336,240.0,9_47_26_23024
1337,241.0,9_47_26_23040
1338,242.0,9_47_26_23057
1339,243.0,9_47_26_23074
1340,244.0,9_47_26_23090
1341,245.0,9_47_26_23107
1342,246.0,9_47_26_23124
1343,247.0,9_47_26_23140
1344,248.0,9_47_26_23157
1345,249.0,9_47_26_23173
1346,250.0,9_47_26_23191
1347,251.0,9_47_26_23207
1348,252.0,9_47_26_23224
1349,253.0,9_47_26_23240
1350,254.0,9_47_26_23257
1351,255.0,9_47_26_23273
1352,256.0,9_47_26_23290
1353,257.0,9_47_26_23307
1354,258.0,9_47_26_23324
1355,259.0,9_47_26_23340
1356,260.0,9_47_26_23357
1357,261.0,9_47_26_23374
1358,262.0,9_47_26_23390
1359,263.0,9_47_26_23407
1360,264.0,9_47_26_23424
1361,265.0,9_47_26_23440
1362,266.0,9_47_26_23457
1363,267.0,9_47_26_23474
1364,268.0,9_47_26_23491
1365,269.0,9_47_26_23507
1366,270.0,9_47_26_23524
1367,271.0,9_47_26_23540
1368,272.0,9_47_26_23557
1369,273.0,9_47_26_23573
1370,274.0,9_47_26_23590
1371,275.0,9_47_26_23607
1372,276.0,9_47_26_23624
1373,277.0,9_47_26_23641
1374,278.0,9_47_26_23657
1375,279.0,9_47_26_23673
1376,280.0,9_47_26_23691
1377,281.0,9_47_26_23707
1378,282.0,9_47_26_23723
1379,283.0,9_47_26_23740
1380,284.0,9_47_26_23757
1381,285.0,9_47_26_23773
1382,286.0,9_47_27_23791
1383,287.0,9_47_27_23807
1384,288.0,9_47_27_23824
1385,289.0,9_47_27_23840
1386,290.0,9_47_27_23857
1387,291.0,9_47_27_23874
1388,292.0,9_47_27_23890
1389,293.0,9_47_27_23907
1390,294.0,9_47_27_23924
1391,295.0,9_47_27_23940
1392,296.0,9_47_27_23957
1393,297.0,9_47_27_23974
1394,298.0,9_47_27_23991
1395,299.0,9_47_27_24007
1396,300.0,9_47_27_24023
1397,301.0,9_47_27_24041
1398,302.0,9_47_27_24057
1399,303.0,9_47_27_24074
1400,304.0,9_47_27_24090
1401,305.0,9_47_27_24107
1402,306.0,9_47_27_24124
1403,307.0,9_47_27_24140
1404,308.0,9_47_27_24157
1405,309.0,9_47_27_24173
1406,310.0,9_47_27_24190
1407,311.0,9_47_27_24207
1408,312.0,9_47_27_24224
1409,313.0,9_47_27_24240
1410,314.0,9_47_27_24262
1411,315.0,9_47_27_24279
1412,316.0,9_47_27_24296
1413,317.0,9_47_27_24312
1414,318.0,9_47_27_24329
1415,319.0,9_47_27_24345
1416,320.0,9_47_27_24363
1417,321.0,9_47_27_24379
1418,322.0,9_47_27_24396
1419,323.0,9_47_27_24412
1420,324.0,9_47_27_24430
1421,325.0,9_47_27_24446
1422,326.0,9_47_27_24463
1423,327.0,9_47_27_24479
1424,328.0,9_47_27_24495
1425,329.0,9_47_27_24512
1426,330.0,9_47_27_24529
1427,331.0,9_47_27_24545
1428,332.0,9_47_27_24563
1429,333.0,9_47_27_24579
1430,334.0,9_47_27_24596
1431,335.0,9_47_27_24612
1432,336.0,9_47_27_24629
1433,337.0,9_47_27_24646
1434,338.0,9_47_27_24663
1435,339.0,9_47_27_24679
1436,340.0,9_47_27_24696
1437,341.0,9_47_27_24712
1438,342.0,9_47_27_24729
1439,343.0,9_47_27_24746
1440,344.0,9_47_27_24762
1441,345.0,9_47_28_24779
1442,346.0,9_47_28_24795
1443,347.0,9_47_28_24813
1444,348.0,9_47_28_24829
1445,349.0,9_47_28_24846
1446,350.0,9_47_28_24862
1447,351.0,9_47_28_24879
1448,352.0,9_47_28_24896
1449,353.0,9_47_28_24912
1450,354.0,9_47_28_24929
1451,355.0,9_47_28_24946
1452,356.0,9_47_28_24962
1453,357.0,9_47_28_24979
1454,358.0,9_47_28_24996
1455,359.0,9_47_28_25013
1456,360.0,9_47_28_25029
1457,361.0,9_47_28_25045
1458,362.0,9_47_28_25062
1459,363.0,9_47_28_25080
1460,364.0,9_47_28_25096
1461,365.0,9_47_28_25113
1462,366.0,9_47_28_25129
1463,367.0,9_47_28_25146
1464,368.0,9_47_28_25163
1465,369.0,9_47_28_25179
1466,370.0,9_47_28_25196
1467,371.0,9_47_28_25213
1468,372.0,9_47_28_25229
1469,373.0,9_47_28_25245
1470,374.0,9_47_28_25263
1471,375.0,9_47_28_25279
1472,376.0,9_47_28_25296
1473,377.0,9_47_28_25312
1474,378.0,9_47_28_25329
1475,379.0,9_47_28_25345
1476,380.0,9_47_28_25362
1477,381.0,9_47_28_25379
1478,382.0,9_47_28_25396
1479,383.0,9_47_28_25412
1480,384.0,9_47_28_25429
1481,385.0,9_47_28_25446
1482,386.0,9_47_28_25463
1483,387.0,9_47_28_25479
1484,388.0,9_47_28_25496
1485,389.0,9_47_28_25512
1486,390.0,9_47_28_25529
1487,391.0,9_47_28_25546
1488,392.0,9_47_28_25562
1489,393.0,9_47_28_25579
1490,394.0,9_47_28_25596
1491,395.0,9_47_28_25612
1492,396.0,9_47_28_25629
1493,397.0,9_47_28_25646
1494,398.0,9_47_28_25662
1495,399.0,9_47_28_25680
1496,400.0,9_47_28_25696
1497,401.0,9_47_28_25712
1498,402.0,9_47_28_25729
1499,403.0,9_47_28_25746
1500,404.0,9_47_28_25763
1501,405.0,9_47_29_25779
1502,406.0,9_47_29_25796
1503,407.0,9_47_29_25812
1504,408.0,9_47_29_25830
1505,409.0,9_47_29_25846
1506,410.0,9_47_29_25862
1507,411.0,9_47_29_25880
1508,412.0,9_47_29_25896
1509,413.0,9_47_29_25912
1510,414.0,9_47_29_25929
1511,415.0,9_47_29_25946
1512,416.0,9_47_29_25962
1513,417.0,9_47_29_25980
1514,418.0,9_47_29_25996
1515,419.0,9_47_29_26012
1516,420.0,9_47_29_26029
1517,421.0,9_47_29_26045
1518,422.0,9_47_29_26062
1519,423.0,9_47_29_26079
1520,424.0,9_47_29_26096
1521,425.0,9_47_29_26112
1522,426.0,9_47_29_26129
1523,427.0,9_47_29_26146
1524,428.0,9_47_29_26163
1525,429.0,9_47_29_26179
1526,430.0,9_47_29_26195
1527,431.0,9_47_29_26213
1528,432.0,9_47_29_26229
1529,433.0,9_47_29_26246
1530,434.0,9_47_29_26263
1531,435.0,9_47_29_26279
1532,436.0,9_47_29_26295
1533,437.0,9_47_29_26313
1534,438.0,9_47_29_26329
1535,439.0,9_47_29_26346
1536,440.0,9_47_29_26362
1537,441.0,9_47_29_26379
1538,442.0,9_47_29_26396
1539,443.0,9_47_29_26412
1540,444.0,9_47_29_26429
1541,445.0,9_47_29_26446
1542,446.0,9_47_29_26463
1543,447.0,9_47_29_26479
1544,448.0,9_47_29_26496
1545,449.0,9_47_29_26512
1546,450.0,9_47_29_26529
1547,451.0,9_47_29_26545
1548,452.0,9_47_29_26562
1549,453.0,9_47_29_26579
1550,454.0,9_47_29_26596
1551,455.0,9_47_29_26613
1552,456.0,9_47_29_26629
1553,457.0,9_47_29_26646
1554,458.0,9_47_29_26663
1555,459.0,9_47_29_26679
1556,460.0,9_47_29_26696
1557,461.0,9_47_29_26713
1558,462.0,9_47_29_26729
1559,463.0,9_47_29_26746
1560,464.0,9_47_29_26762
1561,465.0,9_47_30_26780
1562,466.0,9_47_30_26796
1563,467.0,9_47_30_26812
1564,468.0,9_47_30_26829
1565,469.0,9_47_30_26846
1566,470.0,9_47_30_26862
1567,471.0,9_47_30_26879
1568,472.0,9_47_30_26896
1569,473.0,9_47_30_26912
1570,474.0,9_47_30_26929
1571,475.0,9_47_30_26946
1572,476.0,9_47_30_26962
1573,477.0,9_47_30_26980
1574,478.0,9_47_30_26996
1575,479.0,9_47_30_27013
1576,480.0,9_47_30_27030
1577,481.0,9_47_30_27046
1578,482.0,9_47_30_27062
1579,483.0,9_47_30_27080
1580,484.0,9_47_30_27096
1581,485.0,9_47_30_27112
1582,486.0,9_47_30_27129
1583,487.0,9_47_30_27146
1584,488.0,9_47_30_27163
1585,489.0,9_47_30_27179
1586,490.0,9_47_30_27196
1587,491.0,9_47_30_27212
1588,492.0,9_47_30_27230
1589,493.0,9_47_30_27246
1590,494.0,9_47_30_27263
1591,495.0,9_47_30_27279
1592,496.0,9_47_30_27296
1593,497.0,9_47_30_27312
1594,498.0,9_47_30_27329
1595,499.0,9_47_30_27346
1596,500.0,9_47_30_27363
1597,501.0,9_47_30_27380
1598,502.0,9_47_30_27396
1599,503.0,9_47_30_27412
1600,504.0,9_47_30_27430
1601,505.0,9_47_30_27446
1602,506.0,9_47_30_27463
1603,507.0,9_47_30_27479
1604,508.0,9_47_30_27496
1605,509.0,9_47_30_27512
1606,510.0,9_47_30_27529
1607,511.0,9_47_30_27546
1608,512.0,9_47_30_27563
1609,513.0,9_47_30_27579
1610,514.0,9_47_30_27596
1611,515.0,9_47_30_27613
1612,516.0,9_47_30_27629
1613,517.0,9_47_30_27646
1614,518.0,9_47_30_27662
1615,519.0,9_47_30_27680
1616,520.0,9_47_30_27695
1617,521.0,9_47_30_27713
1618,522.0,9_47_30_27729
1619,523.0,9_47_30_27746
1620,524.0,9_47_30_27762
1621,525.0,9_47_31_27780
1622,526.0,9_47_31_27795
1623,527.0,9_47_31_27813
1624,528.0,9_47_31_27829
1625,529.0,9_47_31_27846
1626,530.0,9_47_31_27862
1627,531.0,9_47_31_27879
1628,532.0,9_47_31_27896
1629,533.0,9_47_31_27912
1630,534.0,9_47_31_27929
1631,535.0,9_47_31_27946
1632,536.0,9_47_31_27963
1633,537.0,9_47_31_27979
1634,538.0,9_47_31_27996
1635,539.0,9_47_31_28013
1636,540.0,9_47_31_28029
1637,541.0,9_47_31_28046
1638,542.0,9_47_31_28062
1639,543.0,9_47_31_28079
1640,544.0,9_47_31_28096
1641,545.0,9_47_31_28113
1642,546.0,9_47_31_28130
1643,547.0,9_47_31_28146
1644,548.0,9_47_31_28162
1645,549.0,9_47_31_28179
1646,550.0,9_47_31_28196
1647,551.0,9_47_31_28212
1648,552.0,9_47_31_28229
1649,553.0,9_47_31_28246
1650,554.0,9_47_31_28263
1651,555.0,9_47_31_28279
1652,556.0,9_47_31_28296
1653,557.0,9_47_31_28313
1654,558.0,9_47_31_28329
1655,559.0,9_47_31_28346
1656,560.0,9_47_31_28363
1657,561.0,9_47_31_28379
1658,562.0,9_47_31_28396
1659,563.0,9_47_31_28413
1660,564.0,9_47_31_28430
1661,565.0,9_47_31_28446
1662,566.0,9_47_31_28462
1663,567.0,9_47_31_28480
1664,568.0,9_47_31_28496
1665,569.0,9_47_31_28512
1666,570.0,9_47_31_28529
1667,571.0,9_47_31_28546
1668,572.0,9_47_31_28563
1669,573.0,9_47_31_28579
1670,574.0,9_47_31_28596
1671,575.0,9_47_31_28612
1672,576.0,9_47_31_28629
1673,577.0,9_47_31_28646
1674,578.0,9_47_31_28663
1675,579.0,9_47_31_28679
1676,580.0,9_47_31_28696
1677,581.0,9_47_31_28713
1678,582.0,9_47_31_28729
1679,583.0,9_47_31_28746
1680,584.0,9_47_31_28763
1681,585.0,9_47_32_28779
1682,586.0,9_47_32_28796
1683,587.0,9_47_32_28813
1684,588.0,9_47_32_28829
1685,589.0,9_47_32_28846
1686,590.0,9_47_32_28863
1687,591.0,9_47_32_28879
1688,592.0,9_47_32_28896
1689,593.0,9_47_32_28913
1690,594.0,9_47_32_28929
1691,595.0,9_47_32_28946
1692,596.0,9_47_32_28963
1693,597.0,9_47_32_28979
1694,598.0,9_47_32_28996
1695,599.0,9_47_32_29012
1696,600.0,9_47_32_29029
1697,601.0,9_47_32_29045
1698,602.0,9_47_32_29062
1699,603.0,9_47_32_29079
1700,604.0,9_47_32_29096
1701,605.0,9_47_32_29112
1702,606.0,9_47_32_29129
1703,607.0,9_47_32_29146
1704,608.0,9_47_32_29163
1705,609.0,9_47_32_29179
1706,610.0,9_47_32_29196
1707,611.0,9_47_32_29213
1708,612.0,9_47_32_29229
1709,613.0,9_47_32_29246
1710,614.0,9_47_32_29273
1711,615.0,9_47_32_29289
1712,616.0,9_47_32_29307
1713,617.0,9_47_32_29323
1714,618.0,9_47_32_29340
1715,619.0,9_47_32_29356
1716,620.0,9_47_32_29373
1717,621.0,9_47_32_29389
1718,622.0,9_47_32_29406
1719,623.0,9_47_32_29423
1720,624.0,9_47_32_29439
1721,625.0,9_47_32_29456
1722,626.0,9_47_32_29473
1723,627.0,9_47_32_29490
1724,628.0,9_47_32_29507
1725,629.0,9_47_32_29523
1726,630.0,9_47_32_29540
1727,631.0,9_47_32_29556
1728,632.0,9_47_32_29573
1729,633.0,9_47_32_29589
1730,634.0,9_47_32_29606
1731,635.0,9_47_32_29623
1732,636.0,9_47_32_29639
1733,637.0,9_47_32_29656
1734,638.0,9_47_32_29673
1735,639.0,9_47_32_29689
1736,640.0,9_47_32_29707
1737,641.0,9_47_32_29723
1738,642.0,9_47_32_29740
1739,643.0,9_47_32_29756
1740,644.0,9_47_32_29773
1741,645.0,9_47_33_29789
1742,646.0,9_47_33_29806
1743,647.0,9_47_33_29823
1744,648.0,9_47_33_29840
1745,649.0,9_47_33_29856
1746,650.0,9_47_33_29873
1747,651.0,9_47_33_29890
1748,652.0,9_47_33_29906
1749,653.0,9_47_33_29922
1750,654.0,9_47_33_29940
1751,655.0,9_47_33_29956
1752,656.0,9_47_33_29973
1753,657.0,9_47_33_29990
1754,658.0,9_47_33_30006
1755,659.0,9_47_33_30023
1756,660.0,9_47_33_30040
1757,661.0,9_47_33_30056
1758,662.0,9_47_33_30072
1759,663.0,9_47_33_30090
1760,664.0,9_47_33_30106
1761,665.0,9_47_33_30122
1762,666.0,9_47_33_30140
1763,667.0,9_47_33_30156
1764,668.0,9_47_33_30172
1765,669.0,9_47_33_30190
1766,670.0,9_47_33_30206
1767,671.0,9_47_33_30223
1768,672.0,9_47_33_30240
1769,673.0,9_47_33_30256
1770,674.0,9_47_33_30273
1771,675.0,9_47_33_30290
1772,676.0,9_47_33_30306
1773,677.0,9_47_33_30323
1774,678.0,9_47_33_30340
1775,679.0,9_47_33_30356
1776,680.0,9_47_33_30373
1777,681.0,9_47_33_30390
1778,682.0,9_47_33_30406
1779,683.0,9_47_33_30423
1780,684.0,9_47_33_30440
1781,685.0,9_47_33_30456
1782,686.0,9_47_33_30473
1783,687.0,9_47_33_30489
1784,688.0,9_47_33_30506
1785,689.0,9_47_33_30523
1786,690.0,9_47_33_30539
1787,691.0,9_47_33_30557
1788,692.0,9_47_33_30573
1789,693.0,9_47_33_30590
1790,694.0,9_47_33_30607
1791,695.0,9_47_33_30623
1792,696.0,9_47_33_30640
1793,697.0,9_47_33_30656
1794,698.0,9_47_33_30673
1795,699.0,9_47_33_30689
1796,700.0,9_47_33_30706
1797,701.0,9_47_33_30723
1798,702.0,9_47_33_30739
1799,703.0,9_47_33_30756
1800,704.0,9_47_33_30773
1801,705.0,9_47_34_30793
1802,706.0,9_47_34_30806
1803,707.0,9_47_34_30824
1804,708.0,9_47_34_30840
1805,709.0,9_47_34_30856
1806,710.0,9_47_34_30873
1807,711.0,9_47_34_30889
1808,712.0,9_47_34_30906
1809,713.0,9_47_34_30923
1810,714.0,9_47_34_30940
1811,715.0,9_47_34_30956
1812,716.0,9_47_34_30973
1813,717.0,9_47_34_30990
1814,718.0,9_47_34_31006
1815,719.0,9_47_34_31023
1816,720.0,9_47_34_31040
1817,721.0,9_47_34_31056
1818,722.0,9_47_34_31073
1819,723.0,9_47_34_31089
1820,724.0,9_47_34_31106
1821,725.0,9_47_34_31123
1822,726.0,9_47_34_31140
1823,727.0,9_47_34_31156
1824,728.0,9_47_34_31172
1825,729.0,9_47_34_31190
1826,730.0,9_47_34_31206
1827,731.0,9_47_34_31223
1828,732.0,9_47_34_31240
1829,733.0,9_47_34_31256
1830,734.0,9_47_34_31273
1831,735.0,9_47_34_31289
1832,736.0,9_47_34_31307
1833,737.0,9_47_34_31323
1834,738.0,9_47_34_31339
1835,739.0,9_47_34_31356
1836,740.0,9_47_34_31372
1837,741.0,9_47_34_31390
1838,742.0,9_47_34_31406
1839,743.0,9_47_34_31423
1840,744.0,9_47_34_31440
1841,745.0,9_47_34_31456
1842,746.0,9_47_34_31473
1843,747.0,9_47_34_31489
1844,748.0,9_47_34_31507
1845,749.0,9_47_34_31523
1846,750.0,9_47_34_31540
1847,751.0,9_47_34_31556
1848,752.0,9_47_34_31573
1849,753.0,9_47_34_31589
1850,754.0,9_47_34_31607
1851,755.0,9_47_34_31623
1852,756.0,9_47_34_31640
1853,757.0,9_47_34_31656
1854,758.0,9_47_34_31673
1855,759.0,9_47_34_31690
1856,760.0,9_47_34_31707
1857,761.0,9_47_34_31723
1858,762.0,9_47_34_31740
1859,763.0,9_47_34_31756
1860,764.0,9_47_34_31773
1861,765.0,9_47_35_31790
1862,766.0,9_47_35_31806
1863,767.0,9_47_35_31823
1864,768.0,9_47_35_31839
1865,769.0,9_47_35_31856
1866,770.0,9_47_35_31873
1867,771.0,9_47_35_31889
1868,772.0,9_47_35_31907
1869,773.0,9_47_35_31923
1870,774.0,9_47_35_31939
1871,775.0,9_47_35_31957
1872,776.0,9_47_35_31973
1873,777.0,9_47_35_31990
1874,778.0,9_47_35_32006
1875,779.0,9_47_35_32023
1876,780.0,9_47_35_32039
1877,781.0,9_47_35_32057
1878,782.0,9_47_35_32073
1879,783.0,9_47_35_32089
1880,784.0,9_47_35_32106
1881,785.0,9_47_35_32123
1882,786.0,9_47_35_32148
1883,787.0,9_47_35_32164
1884,788.0,9_47_35_32181
1885,789.0,9_47_35_32198
1886,790.0,9_47_35_32215
1887,791.0,9_47_35_32231
1888,792.0,9_47_35_32248
1889,793.0,9_47_35_32264
1890,794.0,9_47_35_32281
1891,795.0,9_47_35_32298
1892,796.0,9_47_35_32314
1893,797.0,9_47_35_32331
1894,798.0,9_47_35_32348
1895,799.0,9_47_35_32364
1896,800.0,9_47_35_32381
1897,801.0,9_47_35_32398
1898,802.0,9_47_35_32414
1899,803.0,9_47_35_32431
1900,804.0,9_47_35_32447
1901,805.0,9_47_35_32465
1902,806.0,9_47_35_32481
1903,807.0,9_47_35_32498
1904,808.0,9_47_35_32514
1905,809.0,9_47_35_32531
1906,810.0,9_47_35_32548
1907,811.0,9_47_35_32564
1908,812.0,9_47_35_32581
1909,813.0,9_47_35_32597
1910,814.0,9_47_35_32614
1911,815.0,9_47_35_32631
1912,816.0,9_47_35_32647
1913,817.0,9_47_35_32664
1914,818.0,9_47_35_32681
1915,819.0,9_47_35_32697
1916,820.0,9_47_35_32714
1917,821.0,9_47_35_32731
1918,822.0,9_47_35_32747
1919,823.0,9_47_35_32764
1920,824.0,9_47_36_32781
1921,825.0,9_47_36_32797
1922,826.0,9_47_36_32815
1923,827.0,9_47_36_32831
1924,828.0,9_47_36_32847
1925,829.0,9_47_36_32864
1926,830.0,9_47_36_32881
1927,831.0,9_47_36_32897
1928,832.0,9_47_36_32915
1929,833.0,9_47_36_32931
1930,834.0,9_47_36_32947
1931,835.0,9_47_36_32965
1932,836.0,9_47_36_32981
1933,837.0,9_47_36_32997
1934,838.0,9_47_36_33015
1935,839.0,9_47_36_33031
1936,840.0,9_47_36_33047
1937,841.0,9_47_36_33065
1938,842.0,9_47_36_33081
1939,843.0,9_47_36_33097
1940,844.0,9_47_36_33114
1941,845.0,9_47_36_33131
1942,846.0,9_47_36_33147
1943,847.0,9_47_36_33164
1944,848.0,9_47_36_33181
1945,849.0,9_47_36_33197
1946,850.0,9_47_36_33214
1947,851.0,9_47_36_33231
1948,852.0,9_47_36_33248
1949,853.0,9_47_36_33264
1950,854.0,9_47_36_33281
1951,855.0,9_47_36_33298
1952,856.0,9_47_36_33314
1953,857.0,9_47_36_33331
1954,858.0,9_47_36_33348
1955,859.0,9_47_36_33365
1956,860.0,9_47_36_33381
1957,861.0,9_47_36_33398
1958,862.0,9_47_36_33415
1959,863.0,9_47_36_33431
1960,864.0,9_47_36_33448
1961,865.0,9_47_36_33464
1962,866.0,9_47_36_33481
1963,867.0,9_47_36_33497
1964,868.0,9_47_36_33514
1965,869.0,9_47_36_33530
1966,870.0,9_47_36_33548
1967,871.0,9_47_36_33564
1968,872.0,9_47_36_33580
1969,873.0,9_47_36_33598
1970,874.0,9_47_36_33614
1971,875.0,9_47_36_33631
1972,876.0,9_47_36_33648
1973,877.0,9_47_36_33664
1974,878.0,9_47_36_33681
1975,879.0,9_47_36_33698
1976,880.0,9_47_36_33714
1977,881.0,9_47_36_33731
1978,882.0,9_47_36_33748
1979,883.0,9_47_36_33764
1980,884.0,9_47_37_33781
1981,885.0,9_47_37_33797
1982,886.0,9_47_37_33814
1983,887.0,9_47_37_33831
1984,888.0,9_47_37_33848
1985,889.0,9_47_37_33864
1986,890.0,9_47_37_33881
1987,891.0,9_47_37_33898
1988,892.0,9_47_37_33914
1989,893.0,9_47_37_33931
1990,894.0,9_47_37_33947
1991,895.0,9_47_37_33965
1992,896.0,9_47_37_33981
1993,897.0,9_47_37_33998
1994,898.0,9_47_37_34014
1995,899.0,9_47_37_34031
1996,900.0,9_47_37_34048
1997,901.0,9_47_37_34064
1998,902.0,9_47_37_34081
1999,903.0,9_47_37_34098
2000,904.0,9_47_37_34114
2001,905.0,9_47_37_34131
2002,906.0,9_47_37_34147
2003,907.0,9_47_37_34165
2004,908.0,9_47_37_34181
2005,909.0,9_47_37_34197
2006,910.0,9_47_37_34214
2007,911.0,9_47_37_34231
2008,912.0,9_47_37_34248
2009,913.0,9_47_37_34271
2010,914.0,9_47_37_34287
2011,915.0,9_47_37_34304
2012,916.0,9_47_37_34321
2013,917.0,9_47_37_34337
2014,918.0,9_47_37_34354
2015,919.0,9_47_37_34371
2016,920.0,9_47_37_34387
2017,921.0,9_47_37_34405
2018,922.0,9_47_37_34420
2019,923.0,9_47_37_34438
2020,924.0,9_47_37_34455
2021,925.0,9_47_37_34471
2022,926.0,9_47_37_34488
2023,927.0,9_47_37_34504
2024,928.0,9_47_37_34521
2025,929.0,9_47_37_34537
2026,930.0,9_47_37_34554
2027,931.0,9_47_37_34570
2028,932.0,9_47_37_34588
2029,933.0,9_47_37_34604
2030,934.0,9_47_37_34621
2031,935.0,9_47_37_34637
2032,936.0,9_47_37_34654
2033,937.0,9_47_37_34670
2034,938.0,9_47_37_34688
2035,939.0,9_47_37_34704
2036,940.0,9_47_37_34721
2037,941.0,9_47_37_34738
2038,942.0,9_47_37_34754
2039,943.0,9_47_37_34770
2040,944.0,9_47_38_34787
2041,945.0,9_47_38_34804
2042,946.0,9_47_38_34821
2043,947.0,9_47_38_34837
2044,948.0,9_47_38_34854
2045,949.0,9_47_38_34871
2046,950.0,9_47_38_34887
2047,951.0,9_47_38_34904
2048,952.0,9_47_38_34921
2049,953.0,9_47_38_34937
2050,954.0,9_47_38_34954
2051,955.0,9_47_38_34971
2052,956.0,9_47_38_34988
2053,957.0,9_47_38_35004
2054,958.0,9_47_38_35020
2055,959.0,9_47_38_35037
2056,960.0,9_47_38_35054
2057,961.0,9_47_38_35071
2058,962.0,9_47_38_35088
2059,963.0,9_47_38_35104
2060,964.0,9_47_38_35121
2061,965.0,9_47_38_35137
2062,966.0,9_47_38_35154
2063,967.0,9_47_38_35170
2064,968.0,9_47_38_35188
2065,969.0,9_47_38_35204
2066,970.0,9_47_38_35221
2067,971.0,9_47_38_35238
2068,972.0,9_47_38_35254
2069,973.0,9_47_38_35271
2070,974.0,9_47_38_35287
2071,975.0,9_47_38_35304
2072,976.0,9_47_38_35321
2073,977.0,9_47_38_35337
2074,978.0,9_47_38_35355
2075,979.0,9_47_38_35371
2076,980.0,9_47_38_35388
2077,981.0,9_47_38_35404
2078,982.0,9_47_38_35420
2079,983.0,9_47_38_35438
2080,984.0,9_47_38_35454
2081,985.0,9_47_38_35471
2082,986.0,9_47_38_35487
2083,987.0,9_47_38_35504
2084,988.0,9_47_38_35520
2085,989.0,9_47_38_35538
2086,990.0,9_47_38_35554
2087,991.0,9_47_38_35571
2088,992.0,9_47_38_35587
2089,993.0,9_47_38_35604
2090,994.0,9_47_38_35621
2091,995.0,9_47_38_35637
2092,996.0,9_47_38_35654
2093,997.0,9_47_38_35671
2094,998.0,9_47_38_35688
2095,999.0,9_47_38_35704
2096,1000.0,9_47_38_35721
2097,1001.0,9_47_38_35737
2098,1002.0,9_47_38_35754
2099,1003.0,9_47_38_35771
2100,1004.0,9_47_39_35788
2101,1005.0,9_47_39_35804
2102,1006.0,9_47_39_35821
2103,1007.0,9_47_39_35838
2104,1008.0,9_47_39_35854
2105,1009.0,9_47_39_35870
2106,1010.0,9_47_39_35888
2107,1011.0,9_47_39_35904
2108,1012.0,9_47_39_35921
2109,1013.0,9_47_39_35937
2110,1014.0,9_47_39_35954
2111,1015.0,9_47_39_35971
2112,1016.0,9_47_39_35988
2113,1017.0,9_47_39_36004
2114,1018.0,9_47_39_36021
2115,1019.0,9_47_39_36037
2116,1020.0,9_47_39_36054
2117,1021.0,9_47_39_36071
2118,1022.0,9_47_39_36088
2119,1023.0,9_47_39_36104
2120,0.0,9_47_39_36121
2121,1.0,9_47_39_36137
2122,2.0,9_47_39_36155
2123,3.0,9_47_39_36171
2124,4.0,9_47_39_36187
2125,5.0,9_47_39_36204
2126,6.0,9_47_39_36220
2127,7.0,9_47_39_36238
2128,8.0,9_47_39_36254
2129,9.0,9_47_39_36270
2130,10.0,9_47_39_36288
2131,11.0,9_47_39_36305
2132,12.0,9_47_39_36321
2133,13.0,9_47_39_36338
2134,14.0,9_47_39_36354
2135,15.0,9_47_39_36371
2136,16.0,9_47_39_36387
2137,17.0,9_47_39_36404
2138,18.0,9_47_39_36421
2139,19.0,9_47_39_36437
2140,20.0,9_47_39_36455
2141,21.0,9_47_39_36471
2142,22.0,9_47_39_36487
2143,23.0,9_47_39_36504
2144,24.0,9_47_39_36521
2145,25.0,9_47_39_36537
2146,26.0,9_47_39_36554
2147,27.0,9_47_39_36571
2148,28.0,9_47_39_36588
2149,29.0,9_47_39_36604
2150,30.0,9_47_39_36621
2151,31.0,9_47_39_36637
2152,32.0,9_47_39_36654
2153,33.0,9_47_39_36670
2154,34.0,9_47_39_36688
2155,35.0,9_47_39_36705
2156,36.0,9_47_39_36721
2157,37.0,9_47_39_36737
2158,38.0,9_47_39_36754
2159,39.0,9_47_39_36770
2160,40.0,9_47_40_36788
2161,41.0,9_47_40_36804
2162,42.0,9_47_40_36821
2163,43.0,9_47_40_36837
2164,44.0,9_47_40_36854
2165,45.0,9_47_40_36871
2166,46.0,9_47_40_36887
2167,47.0,9_47_40_36904
2168,48.0,9_47_40_36921
2169,49.0,9_47_40_36937
2170,50.0,9_47_40_36954
2171,51.0,9_47_40_36971
2172,52.0,9_47_40_36988
2173,53.0,9_47_40_37004
2174,54.0,9_47_40_37021
2175,55.0,9_47_40_37037
2176,56.0,9_47_40_37055
2177,57.0,9_47_40_37071
2178,58.0,9_47_40_37087
2179,59.0,9_47_40_37104
2180,60.0,9_47_40_37121
2181,61.0,9_47_40_37137
2182,62.0,9_47_40_37154
2183,63.0,9_47_40_37171
2184,64.0,9_47_40_37187
2185,65.0,9_47_40_37204
2186,66.0,9_47_40_37220
2187,67.0,9_47_40_37238
2188,68.0,9_47_40_37254
2189,69.0,9_47_40_37271
2190,70.0,9_47_40_37288
2191,71.0,9_47_40_37304
2192,72.0,9_47_40_37322
2193,73.0,9_47_40_37363
2194,74.0,9_47_40_37379
2195,75.0,9_47_40_37396
2196,76.0,9_47_40_37413
2197,77.0,9_47_40_37429
2198,78.0,9_47_40_37446
2199,79.0,9_47_40_37463
2200,80.0,9_47_40_37480
2201,81.0,9_47_40_37496
2202,82.0,9_47_40_37514
2203,83.0,9_47_40_37530
2204,84.0,9_47_40_37546
2205,85.0,9_47_40_37562
2206,86.0,9_47_40_37579
2207,87.0,9_47_40_37596
2208,88.0,9_47_40_37613
2209,89.0,9_47_40_37629
2210,90.0,9_47_40_37646
2211,91.0,9_47_40_37663
2212,92.0,9_47_40_37679
2213,93.0,9_47_40_37696
2214,94.0,9_47_40_37712
2215,95.0,9_47_40_37729
2216,96.0,9_47_40_37746
2217,97.0,9_47_40_37763
2218,98.0,9_47_41_37779
2219,99.0,9_47_41_37796
2220,100.0,9_47_41_37813
2221,101.0,9_47_41_37830
2222,102.0,9_47_41_37846
2223,103.0,9_47_41_37863
2224,104.0,9_47_41_37880
2225,105.0,9_47_41_37896
2226,106.0,9_47_41_37912
2227,107.0,9_47_41_37929
2228,108.0,9_47_41_37946
2229,109.0,9_47_41_37962
2230,110.0,9_47_41_37979
2231,111.0,9_47_41_37996
2232,112.0,9_47_41_38012
2233,113.0,9_47_41_38029
2234,114.0,9_47_41_38046
2235,115.0,9_47_41_38062
2236,116.0,9_47_41_38080
2237,117.0,9_47_41_38096
2238,118.0,9_47_41_38112
2239,119.0,9_47_41_38130
2240,120.0,9_47_41_38146
2241,121.0,9_47_41_38162
2242,122.0,9_47_41_38179
2243,123.0,9_47_41_38196
2244,124.0,9_47_41_38213
2245,125.0,9_47_41_38229
2246,126.0,9_47_41_38246
2247,127.0,9_47_41_38263
2248,128.0,9_47_41_38280
2249,129.0,9_47_41_38296
2250,130.0,9_47_41_38313
2251,131.0,9_47_41_38329
2252,132.0,9_47_41_38346
2253,133.0,9_47_41_38363
2254,134.0,9_47_41_38379
2255,135.0,9_47_41_38396
2256,136.0,9_47_41_38413
2257,137.0,9_47_41_38429
2258,138.0,9_47_41_38447
2259,139.0,9_47_41_38463
2260,140.0,9_47_41_38480
2261,141.0,9_47_41_38496
2262,142.0,9_47_41_38513
2263,143.0,9_47_41_38530
2264,144.0,9_47_41_38546
2265,145.0,9_47_41_38563
2266,146.0,9_47_41_38579
2267,147.0,9_47_41_38596
2268,148.0,9_47_41_38613
2269,149.0,9_47_41_38629
2270,150.0,9_47_41_38646
2271,151.0,9_47_41_38662
2272,152.0,9_47_41_38680
2273,153.0,9_47_41_38696
2274,154.0,9_47_41_38713
2275,155.0,9_47_41_38730
2276,156.0,9_47_41_38746
2277,157.0,9_47_41_38763
2278,158.0,9_47_42_38780
2279,159.0,9_47_42_38796
2280,160.0,9_47_42_38812
2281,161.0,9_47_42_38830
2282,162.0,9_47_42_38846
2283,163.0,9_47_42_38862
2284,164.0,9_47_42_38879
2285,165.0,9_47_42_38896
2286,166.0,9_47_42_38912
2287,167.0,9_47_42_38930
2288,168.0,9_47_42_38946
2289,169.0,9_47_42_38963
2290,170.0,9_47_42_38979
2291,171.0,9_47_42_38996
2292,172.0,9_47_42_39013
2293,173.0,9_47_42_39030
2294,174.0,9_47_42_39046
2295,175.0,9_47_42_39063
2296,176.0,9_47_42_39079
2297,177.0,9_47_42_39096
2298,178.0,9_47_42_39112
2299,179.0,9_47_42_39129
2300,180.0,9_47_42_39147
2301,181.0,9_47_42_39163
2302,182.0,9_47_42_39180
2303,183.0,9_47_42_39196
2304,184.0,9_47_42_39213
2305,185.0,9_47_42_39230
2306,186.0,9_47_42_39246
2307,187.0,9_47_42_39279
2308,188.0,9_47_42_39296
2309,189.0,9_47_42_39312
2310,190.0,9_47_42_39329
2311,191.0,9_47_42_39345
2312,192.0,9_47_42_39362
2313,193.0,9_47_42_39379
2314,194.0,9_47_42_39395
2315,195.0,9_47_42_39413
2316,196.0,9_47_42_39428
2317,197.0,9_47_42_39446
2318,198.0,9_47_42_39462
2319,199.0,9_47_42_39479
2320,200.0,9_47_42_39496
2321,201.0,9_47_42_39512
2322,202.0,9_47_42_39529
2323,203.0,9_47_42_39546
2324,204.0,9_47_42_39562
2325,205.0,9_47_42_39579
2326,206.0,9_47_42_39596
2327,207.0,9_47_42_39612
2328,208.0,9_47_42_39629
2329,209.0,9_47_42_39645
2330,210.0,9_47_42_39662
2331,211.0,9_47_42_39679
2332,212.0,9_47_42_39695
2333,213.0,9_47_42_39712
2334,214.0,9_47_42_39729
2335,215.0,9_47_42_39745
2336,216.0,9_47_42_39762
2337,217.0,9_47_43_39779
2338,218.0,9_47_43_39795
2339,219.0,9_47_43_39812
2340,220.0,9_47_43_39829
2341,221.0,9_47_43_39846
2342,222.0,9_47_43_39862
2343,223.0,9_47_43_39879
2344,224.0,9_47_43_39895
2345,225.0,9_47_43_39912
2346,226.0,9_47_43_39929
2347,227.0,9_47_43_39946
2348,228.0,9_47_43_39962
2349,229.0,9_47_43_39979
2350,230.0,9_47_43_39995
2351,231.0,9_47_43_40012
2352,232.0,9_47_43_40029
2353,233.0,9_47_43_40045
2354,234.0,9_47_43_40062
2355,235.0,9_47_43_40079
2356,236.0,9_47_43_40096
2357,237.0,9_47_43_40113
2358,238.0,9_47_43_40129
2359,239.0,9_47_43_40145
2360,240.0,9_47_43_40162
2361,241.0,9_47_43_40179
2362,242.0,9_47_43_40196
2363,243.0,9_47_43_40213
2364,244.0,9_47_43_40229
2365,245.0,9_47_43_40245
2366,246.0,9_47_43_40263
2367,247.0,9_47_43_40279
2368,248.0,9_47_43_40295
2369,249.0,9_47_43_40313
2370,250.0,9_47_43_40329
2371,251.0,9_47_43_40345
2372,252.0,9_47_43_40363
2373,253.0,9_47_43_40379
2374,254.0,9_47_43_40396
2375,255.0,9_47_43_40412
2376,256.0,9_47_43_40429
2377,257.0,9_47_43_40446
2378,258.0,9_47_43_40462
2379,259.0,9_47_43_40479
2380,260.0,9_47_43_40496
2381,261.0,9_47_43_40512
2382,262.0,9_47_43_40529
2383,263.0,9_47_43_40545
2384,264.0,9_47_43_40563
2385,265.0,9_47_43_40579
2386,266.0,9_47_43_40596
2387,267.0,9_47_43_40612
2388,268.0,9_47_43_40629
2389,269.0,9_47_43_40645
2390,270.0,9_47_43_40662
2391,271.0,9_47_43_40679
2392,272.0,9_47_43_40695
2393,273.0,9_47_43_40712
2394,274.0,9_47_43_40729
2395,275.0,9_47_43_40745
2396,276.0,9_47_43_40762
2397,277.0,9_47_44_40779
2398,278.0,9_47_44_40795
2399,279.0,9_47_44_40812
2400,280.0,9_47_44_40829
2401,281.0,9_47_44_40846
2402,282.0,9_47_44_40862
2403,283.0,9_47_44_40879
2404,284.0,9_47_44_40896
2405,285.0,9_47_44_40912
2406,286.0,9_47_44_40929
2407,287.0,9_47_44_40946
2408,288.0,9_47_44_40963
2409,289.0,9_47_44_40979
2410,290.0,9_47_44_40996
2411,291.0,9_47_44_41012
2412,292.0,9_47_44_41029
2413,293.0,9_47_44_41046
2414,294.0,9_47_44_41062
2415,295.0,9_47_44_41079
2416,296.0,9_47_44_41096
2417,297.0,9_47_44_41112
2418,298.0,9_47_44_41129
2419,299.0,9_47_44_41146
2420,300.0,9_47_44_41162
2421,301.0,9_47_44_41179
2422,302.0,9_47_44_41195
2423,303.0,9_47_44_41213
2424,304.0,9_47_44_41230
2425,305.0,9_47_44_41246
2426,306.0,9_47_44_41262
2427,307.0,9_47_44_41279
2428,308.0,9_47_44_41296
2429,309.0,9_47_44_41313
2430,310.0,9_47_44_41329
2431,311.0,9_47_44_41346
2432,312.0,9_47_44_41362
2433,313.0,9_47_44_41379
2434,314.0,9_47_44_41395
2435,315.0,9_47_44_41412
2436,316.0,9_47_44_41429
2437,317.0,9_47_44_41445
2438,318.0,9_47_44_41462
2439,319.0,9_47_44_41479
2440,320.0,9_47_44_41495
2441,321.0,9_47_44_41513
2442,322.0,9_47_44_41529
2443,323.0,9_47_44_41546
2444,324.0,9_47_44_41563
2445,325.0,9_47_44_41579
2446,326.0,9_47_44_41595
2447,327.0,9_47_44_41612
2448,328.0,9_47_44_41629
2449,329.0,9_47_44_41646
2450,330.0,9_47_44_41663
2451,331.0,9_47_44_41680
2452,332.0,9_47_44_41695
2453,333.0,9_47_44_41712
2454,334.0,9_47_44_41729
2455,335.0,9_47_44_41746
2456,336.0,9_47_44_41762
2457,337.0,9_47_45_41779
2458,338.0,9_47_45_41796
2459,339.0,9_47_45_41813
2460,340.0,9_47_45_41829
2461,341.0,9_47_45_41846
2462,342.0,9_47_45_41862
2463,343.0,9_47_45_41879
2464,344.0,9_47_45_41896
2465,345.0,9_47_45_41912
2466,346.0,9_47_45_41929
2467,347.0,9_47_45_41945
2468,348.0,9_47_45_41962
2469,349.0,9_47_45_41979
2470,350.0,9_47_45_41996
2471,351.0,9_47_45_42012
2472,352.0,9_47_45_42029
2473,353.0,9_47_45_42046
2474,354.0,9_47_45_42063
2475,355.0,9_47_45_42079
2476,356.0,9_47_45_42096
2477,357.0,9_47_45_42113
2478,358.0,9_47_45_42129
2479,359.0,9_47_45_42146
2480,360.0,9_47_45_42163
2481,361.0,9_47_45_42179
2482,362.0,9_47_45_42196
2483,363.0,9_47_45_42212
2484,364.0,9_47_45_42229
2485,365.0,9_47_45_42246
2486,366.0,9_47_45_42262
2487,367.0,9_47_45_42279
2488,368.0,9_47_45_42295
2489,369.0,9_47_45_42312
2490,370.0,9_47_45_42334
2491,371.0,9_47_45_42370
2492,372.0,9_47_45_42387
2493,373.0,9_47_45_42404
2494,374.0,9_47_45_42420
2495,375.0,9_47_45_42436
2496,376.0,9_47_45_42453
2497,377.0,9_47_45_42470
2498,378.0,9_47_45_42487
2499,379.0,9_47_45_42503
2500,380.0,9_47_45_42520
2501,381.0,9_47_45_42536
2502,382.0,9_47_45_42553
2503,383.0,9_47_45_42570
2504,384.0,9_47_45_42587
2505,385.0,9_47_45_42603
2506,386.0,9_47_45_42620
2507,387.0,9_47_45_42637
2508,388.0,9_47_45_42653
2509,389.0,9_47_45_42670
2510,390.0,9_47_45_42686
2511,391.0,9_47_45_42703
2512,392.0,9_47_45_42720
2513,393.0,9_47_45_42736
2514,394.0,9_47_45_42753
2515,395.0,9_47_45_42770
2516,396.0,9_47_46_42786
2517,397.0,9_47_46_42803
2518,398.0,9_47_46_42820
2519,399.0,9_47_46_42837
2520,400.0,9_47_46_42853
2521,401.0,9_47_46_42870
2522,402.0,9_47_46_42887
2523,403.0,9_47_46_42904
2524,404.0,9_47_46_42920
2525,405.0,9_47_46_42936
2526,406.0,9_47_46_42953
2527,407.0,9_47_46_42970
2528,408.0,9_47_46_42987
2529,409.0,9_47_46_43004
2530,410.0,9_47_46_43020
2531,411.0,9_47_46_43036
2532,412.0,9_47_46_43053
2533,413.0,9_47_46_43069
2534,414.0,9_47_46_43087
2535,415.0,9_47_46_43104
2536,416.0,9_47_46_43120
2537,417.0,9_47_46_43136
2538,418.0,9_47_46_43154
2539,419.0,9_47_46_43170
2540,420.0,9_47_46_43187
2541,421.0,9_47_46_43204
2542,422.0,9_47_46_43220
2543,423.0,9_47_46_43237
2544,424.0,9_47_46_43253
2545,425.0,9_47_46_43269
2546,426.0,9_47_46_43286
2547,427.0,9_47_46_43303
2548,428.0,9_47_46_43320
2549,429.0,9_47_46_43336
2550,430.0,9_47_46_43353
2551,431.0,9_47_46_43370
2552,432.0,9_47_46_43387
2553,433.0,9_47_46_43404
2554,434.0,9_47_46_43420
2555,435.0,9_47_46_43436
2556,436.0,9_47_46_43453
2557,437.0,9_47_46_43470
2558,438.0,9_47_46_43486
2559,439.0,9_47_46_43503
2560,440.0,9_47_46_43520
2561,441.0,9_47_46_43537
2562,442.0,9_47_46_43553
2563,443.0,9_47_46_43570
2564,444.0,9_47_46_43587
2565,445.0,9_47_46_43604
2566,446.0,9_47_46_43620
2567,447.0,9_47_46_43637
2568,448.0,9_47_46_43653
2569,449.0,9_47_46_43670
2570,450.0,9_47_46_43687
2571,451.0,9_47_46_43704
2572,452.0,9_47_46_43720
2573,453.0,9_47_46_43736
2574,454.0,9_47_46_43753
2575,455.0,9_47_46_43770
2576,456.0,9_47_47_43786
2577,457.0,9_47_47_43803
2578,458.0,9_47_47_43820
2579,459.0,9_47_47_43836
2580,460.0,9_47_47_43853
2581,461.0,9_47_47_43870
2582,462.0,9_47_47_43886
2583,463.0,9_47_47_43903
2584,464.0,9_47_47_43920
2585,465.0,9_47_47_43937
2586,466.0,9_47_47_43954
2587,467.0,9_47_47_43970
2588,468.0,9_47_47_43987
2589,469.0,9_47_47_44003
2590,470.0,9_47_47_44021
2591,471.0,9_47_47_44037
2592,472.0,9_47_47_44054
2593,473.0,9_47_47_44070
2594,474.0,9_47_47_44087
2595,475.0,9_47_47_44103
2596,476.0,9_47_47_44120
2597,477.0,9_47_47_44137
2598,478.0,9_47_47_44153
2599,479.0,9_47_47_44170
2600,480.0,9_47_47_44187
2601,481.0,9_47_47_44203
2602,482.0,9_47_47_44220
2603,483.0,9_47_47_44237
2604,484.0,9_47_47_44253
2605,485.0,9_47_47_44272
2606,486.0,9_47_47_44289
2607,487.0,9_47_47_44305
2608,488.0,9_47_47_44322
2609,489.0,9_47_47_44339
2610,490.0,9_47_47_44356
2611,491.0,9_47_47_44372
2612,492.0,9_47_47_44389
2613,493.0,9_47_47_44406
2614,494.0,9_47_47_44423
2615,495.0,9_47_47_44439
2616,496.0,9_47_47_44455
2617,497.0,9_47_47_44472
2618,498.0,9_47_47_44489
2619,499.0,9_47_47_44505
2620,500.0,9_47_47_44522
2621,501.0,9_47_47_44539
2622,502.0,9_47_47_44555
2623,503.0,9_47_47_44572
2624,504.0,9_47_47_44589
2625,505.0,9_47_47_44605
2626,506.0,9_47_47_44622
2627,507.0,9_47_47_44638
2628,508.0,9_47_47_44655
2629,509.0,9_47_47_44672
2630,510.0,9_47_47_44688
2631,511.0,9_47_47_44705
2632,512.0,9_47_47_44722
2633,513.0,9_47_47_44738
2634,514.0,9_47_47_44755
2635,515.0,9_47_47_44772
2636,516.0,9_47_48_44789
2637,517.0,9_47_48_44805
2638,518.0,9_47_48_44822
2639,519.0,9_47_48_44839
2640,520.0,9_47_48_44855
2641,521.0,9_47_48_44872
2642,522.0,9_47_48_44889
2643,523.0,9_47_48_44906
2644,524.0,9_47_48_44922
2645,525.0,9_47_48_44938
2646,526.0,9_47_48_44956
2647,527.0,9_47_48_44972
2648,528.0,9_47_48_44989
2649,529.0,9_47_48_45005
2650,530.0,9_47_48_45022
2651,531.0,9_47_48_45039
2652,532.0,9_47_48_45056
2653,533.0,9_47_48_45072
2654,534.0,9_47_48_45089
2655,535.0,9_47_48_45106
2656,536.0,9_47_48_45123
2657,537.0,9_47_48_45139
2658,538.0,9_47_48_45155
2659,539.0,9_47_48_45172
2660,540.0,9_47_48_45189
2661,541.0,9_47_48_45206
2662,542.0,9_47_48_45222
2663,543.0,9_47_48_45239
2664,544.0,9_47_48_45255
2665,545.0,9_47_48_45272
2666,546.0,9_47_48_45289
2667,547.0,9_47_48_45306
2668,548.0,9_47_48_45322
2669,549.0,9_47_48_45339
2670,550.0,9_47_48_45356
2671,551.0,9_47_48_45372
2672,552.0,9_47_48_45388
2673,553.0,9_47_48_45405
2674,554.0,9_47_48_45422
2675,555.0,9_47_48_45439
2676,556.0,9_47_48_45456
2677,557.0,9_47_48_45472
2678,558.0,9_47_48_45488
2679,559.0,9_47_48_45506
2680,560.0,9_47_48_45522
2681,561.0,9_47_48_45539
2682,562.0,9_47_48_45556
2683,563.0,9_47_48_45572
2684,564.0,9_47_48_45589
2685,565.0,9_47_48_45605
2686,566.0,9_47_48_45622
2687,567.0,9_47_48_45639
2688,568.0,9_47_48_45656
2689,569.0,9_47_48_45672
2690,570.0,9_47_48_45688
2691,571.0,9_47_48_45705
2692,572.0,9_47_48_45722
2693,573.0,9_47_48_45739
2694,574.0,9_47_48_45756
2695,575.0,9_47_48_45772
2696,576.0,9_47_49_45788
2697,577.0,9_47_49_45805
2698,578.0,9_47_49_45822
2699,579.0,9_47_49_45838
2700,580.0,9_47_49_45856
2701,581.0,9_47_49_45872
2702,582.0,9_47_49_45892
2703,583.0,9_47_49_45905
2704,584.0,9_47_49_45922
2705,585.0,9_47_49_45939
2706,586.0,9_47_49_45956
2707,587.0,9_47_49_45973
2708,588.0,9_47_49_45988
2709,589.0,9_47_49_46005
2710,590.0,9_47_49_46022
2711,591.0,9_47_49_46039
2712,592.0,9_47_49_46056
2713,593.0,9_47_49_46072
2714,594.0,9_47_49_46088
2715,595.0,9_47_49_46105
2716,596.0,9_47_49_46122
2717,597.0,9_47_49_46139
2718,598.0,9_47_49_46156
2719,599.0,9_47_49_46172
2720,600.0,9_47_49_46188
2721,601.0,9_47_49_46205
2722,602.0,9_47_49_46222
2723,603.0,9_47_49_46239
2724,604.0,9_47_49_46256
2725,605.0,9_47_49_46272
2726,606.0,9_47_49_46289
2727,607.0,9_47_49_46306
2728,608.0,9_47_49_46322
2729,609.0,9_47_49_46339
2730,610.0,9_47_49_46355
2731,611.0,9_47_49_46372
2732,612.0,9_47_49_46388
2733,613.0,9_47_49_46405
2734,614.0,9_47_49_46422
2735,615.0,9_47_49_46439
2736,616.0,9_47_49_46456
2737,617.0,9_47_49_46473
2738,618.0,9_47_49_46488
2739,619.0,9_47_49_46505
2740,620.0,9_47_49_46522
2741,621.0,9_47_49_46539
2742,622.0,9_47_49_46556
2743,623.0,9_47_49_46573
2744,624.0,9_47_49_46589
2745,625.0,9_47_49_46605
2746,626.0,9_47_49_46622
2747,627.0,9_47_49_46639
2748,628.0,9_47_49_46656
2749,629.0,9_47_49_46673
2750,630.0,9_47_49_46689
2751,631.0,9_47_49_46705
2752,632.0,9_47_49_46722
2753,633.0,9_47_49_46739
2754,634.0,9_47_49_46756
2755,635.0,9_47_49_46773
2756,636.0,9_47_50_46789
2757,637.0,9_47_50_46806
2758,638.0,9_47_50_46822
2759,639.0,9_47_50_46839
2760,640.0,9_47_50_46855
2761,641.0,9_47_50_46872
2762,642.0,9_47_50_46889
2763,643.0,9_47_50_46906
2764,644.0,9_47_50_46922
2765,645.0,9_47_50_46939
2766,646.0,9_47_50_46956
2767,647.0,9_47_50_46972
2768,648.0,9_47_50_46989
2769,649.0,9_47_50_47006
2770,650.0,9_47_50_47022
2771,651.0,9_47_50_47039
2772,652.0,9_47_50_47055
2773,653.0,9_47_50_47072
2774,654.0,9_47_50_47089
2775,655.0,9_47_50_47106
2776,656.0,9_47_50_47122
2777,657.0,9_47_50_47139
2778,658.0,9_47_50_47156
2779,659.0,9_47_50_47172
2780,660.0,9_47_50_47189
2781,661.0,9_47_50_47206
2782,662.0,9_47_50_47222
2783,663.0,9_47_50_47239
2784,664.0,9_47_50_47256
2785,665.0,9_47_50_47272
2786,666.0,9_47_50_47289
2787,667.0,9_47_50_47306
2788,668.0,9_47_50_47322
2789,669.0,9_47_50_47339
2790,670.0,9_47_50_47356
2791,671.0,9_47_50_47372
2792,672.0,9_47_50_47389
2793,673.0,9_47_50_47406
2794,674.0,9_47_50_47423
2795,675.0,9_47_50_47439
2796,676.0,9_47_50_47455
2797,677.0,9_47_50_47472
2798,678.0,9_47_50_47489
2799,679.0,9_47_50_47506
2800,680.0,9_47_50_47522
2801,681.0,9_47_50_47539
2802,682.0,9_47_50_47555
2803,683.0,9_47_50_47572
2804,684.0,9_47_50_47589
2805,685.0,9_47_50_47605
2806,686.0,9_47_50_47622
2807,687.0,9_47_50_47638
2808,688.0,9_47_50_47655
2809,689.0,9_47_50_47672
2810,690.0,9_47_50_47689
2811,691.0,9_47_50_47706
2812,692.0,9_47_50_47723
2813,693.0,9_47_50_47738
2814,694.0,9_47_50_47756
2815,695.0,9_47_50_47773
2816,696.0,9_47_51_47788
2817,697.0,9_47_51_47805
2818,698.0,9_47_51_47822
2819,699.0,9_47_51_47839
2820,700.0,9_47_51_47856
2821,701.0,9_47_51_47872
2822,702.0,9_47_51_47888
2823,703.0,9_47_51_47905
2824,704.0,9_47_51_47922
2825,705.0,9_47_51_47939
2826,706.0,9_47_51_47955
2827,707.0,9_47_51_47972
2828,708.0,9_47_51_47988
2829,709.0,9_47_51_48005
2830,710.0,9_47_51_48023
2831,711.0,9_47_51_48039
2832,712.0,9_47_51_48056
2833,713.0,9_47_51_48072
2834,714.0,9_47_51_48089
2835,715.0,9_47_51_48105
2836,716.0,9_47_51_48122
2837,717.0,9_47_51_48139
2838,718.0,9_47_51_48156
2839,719.0,9_47_51_48172
2840,720.0,9_47_51_48189
2841,721.0,9_47_51_48205
2842,722.0,9_47_51_48222
2843,723.0,9_47_51_48239
2844,724.0,9_47_51_48256
2845,725.0,9_47_51_48273
2846,726.0,9_47_51_48289
2847,727.0,9_47_51_48305
2848,728.0,9_47_51_48322
2849,729.0,9_47_51_48339
2850,730.0,9_47_51_48355
2851,731.0,9_47_51_48372
2852,732.0,9_47_51_48389
2853,733.0,9_47_51_48405
2854,734.0,9_47_51_48422
2855,735.0,9_47_51_48439
2856,736.0,9_47_51_48456
2857,737.0,9_47_51_48472
2858,738.0,9_47_51_48489
2859,739.0,9_47_51_48505
2860,740.0,9_47_51_48522
2861,741.0,9_47_51_48539
2862,742.0,9_47_51_48556
2863,743.0,9_47_51_48573
2864,744.0,9_47_51_48589
2865,745.0,9_47_51_48606
2866,746.0,9_47_51_48622
2867,747.0,9_47_51_48639
2868,748.0,9_47_51_48656
2869,749.0,9_47_51_48672
2870,750.0,9_47_51_48689
2871,751.0,9_47_51_48706
2872,752.0,9_47_51_48722
2873,753.0,9_47_51_48739
2874,754.0,9_47_51_48756
2875,755.0,9_47_51_48772
2876,756.0,9_47_52_48789
2877,757.0,9_47_52_48806
2878,758.0,9_47_52_48822
2879,759.0,9_47_52_48839
2880,760.0,9_47_52_48856
2881,761.0,9_47_52_48872
2882,762.0,9_47_52_48889
2883,763.0,9_47_52_48905
2884,764.0,9_47_52_48923
2885,765.0,9_47_52_48938
2886,766.0,9_47_52_48955
2887,767.0,9_47_52_48972
2888,768.0,9_47_52_48989
2889,769.0,9_47_52_49006
2890,770.0,9_47_52_49022
2891,771.0,9_47_52_49039
2892,772.0,9_47_52_49055
2893,773.0,9_47_52_49072
2894,774.0,9_47_52_49089
2895,775.0,9_47_52_49106
2896,776.0,9_47_52_49122
2897,777.0,9_47_52_49139
2898,778.0,9_47_52_49156
2899,779.0,9_47_52_49173
2900,780.0,9_47_52_49189
2901,781.0,9_47_52_49205
2902,782.0,9_47_52_49222
2903,783.0,9_47_52_49239
2904,784.0,9_47_52_49255
2905,785.0,9_47_52_49281
2906,786.0,9_47_52_49299
2907,787.0,9_47_52_49315
2908,788.0,9_47_52_49332
2909,789.0,9_47_52_49349
2910,790.0,9_47_52_49365
2911,791.0,9_47_52_49382
2912,792.0,9_47_52_49398
2913,793.0,9_47_52_49415
2914,794.0,9_47_52_49432
2915,795.0,9_47_52_49448
2916,796.0,9_47_52_49465
2917,797.0,9_47_52_49481
2918,798.0,9_47_52_49499
2919,799.0,9_47_52_49515
2920,800.0,9_47_52_49532
2921,801.0,9_47_52_49549
2922,802.0,9_47_52_49565
2923,803.0,9_47_52_49582
2924,804.0,9_47_52_49598
2925,805.0,9_47_52_49615
2926,806.0,9_47_52_49632
2927,807.0,9_47_52_49649
2928,808.0,9_47_52_49665
2929,809.0,9_47_52_49681
2930,810.0,9_47_52_49698
2931,811.0,9_47_52_49715
2932,812.0,9_47_52_49731
2933,813.0,9_47_52_49748
2934,814.0,9_47_52_49765
2935,815.0,9_47_53_49782
2936,816.0,9_47_53_49799
2937,817.0,9_47_53_49815
2938,818.0,9_47_53_49831
2939,819.0,9_47_53_49849
2940,820.0,9_47_53_49865
2941,821.0,9_47_53_49881
2942,822.0,9_47_53_49898
2943,823.0,9_47_53_49915
2944,824.0,9_47_53_49932
2945,825.0,9_47_53_49949
2946,826.0,9_47_53_49965
2947,827.0,9_47_53_49981
2948,828.0,9_47_53_49998
2949,829.0,9_47_53_50015
2950,830.0,9_47_53_50032
2951,831.0,9_47_53_50049
2952,832.0,9_47_53_50065
2953,833.0,9_47_53_50081
2954,834.0,9_47_53_50098
2955,835.0,9_47_53_50115
2956,836.0,9_47_53_50132
2957,837.0,9_47_53_50148
2958,838.0,9_47_53_50165
2959,839.0,9_47_53_50182
2960,840.0,9_47_53_50198
2961,841.0,9_47_53_50215
2962,842.0,9_47_53_50232
2963,843.0,9_47_53_50248
2964,844.0,9_47_53_50265
2965,845.0,9_47_53_50282
2966,846.0,9_47_53_50298
2967,847.0,9_47_53_50315
2968,848.0,9_47_53_50332
2969,849.0,9_47_53_50348
2970,850.0,9_47_53_50365
2971,851.0,9_47_53_50381
2972,852.0,9_47_53_50398
2973,853.0,9_47_53_50415
2974,854.0,9_47_53_50432
2975,855.0,9_47_53_50448
2976,856.0,9_47_53_50465
2977,857.0,9_47_53_50482
2978,858.0,9_47_53_50498
2979,859.0,9_47_53_50515
2980,860.0,9_47_53_50531
2981,861.0,9_47_53_50548
2982,862.0,9_47_53_50565
2983,863.0,9_47_53_50582
2984,864.0,9_47_53_50599
2985,865.0,9_47_53_50615
2986,866.0,9_47_53_50632
2987,867.0,9_47_53_50648
2988,868.0,9_47_53_50665
2989,869.0,9_47_53_50681
2990,870.0,9_47_53_50698
2991,871.0,9_47_53_50715
2992,872.0,9_47_53_50732
2993,873.0,9_47_53_50749
2994,874.0,9_47_53_50765
2995,875.0,9_47_54_50782
2996,876.0,9_47_54_50799
2997,877.0,9_47_54_50815
2998,878.0,9_47_54_50832
2999,879.0,9_47_54_50849
3000,880.0,9_47_54_50865
3001,881.0,9_47_54_50881
3002,882.0,9_47_54_50899
3003,883.0,9_47_54_50915
3004,884.0,9_47_54_50932
3005,885.0,9_47_54_50949
3006,886.0,9_47_54_50965
3007,887.0,9_47_54_50982
3008,888.0,9_47_54_50998
3009,889.0,9_47_54_51015
3010,890.0,9_47_54_51032
3011,891.0,9_47_54_51049
3012,892.0,9_47_54_51065
3013,893.0,9_47_54_51082
3014,894.0,9_47_54_51099
3015,895.0,9_47_54_51115
3016,896.0,9_47_54_51132
3017,897.0,9_47_54_51148
3018,898.0,9_47_54_51165
3019,899.0,9_47_54_51182
3020,900.0,9_47_54_51198
3021,901.0,9_47_54_51215
3022,902.0,9_47_54_51231
3023,903.0,9_47_54_51248
3024,904.0,9_47_54_51265
3025,905.0,9_47_54_51281
3026,906.0,9_47_54_51299
3027,907.0,9_47_54_51315
3028,908.0,9_47_54_51332
3029,909.0,9_47_54_51348
3030,910.0,9_47_54_51365
3031,911.0,9_47_54_51382
3032,912.0,9_47_54_51399
3033,913.0,9_47_54_51415
3034,914.0,9_47_54_51432
3035,915.0,9_47_54_51448
3036,916.0,9_47_54_51464
3037,917.0,9_47_54_51482
3038,918.0,9_47_54_51498
3039,919.0,9_47_54_51515
3040,920.0,9_47_54_51532
3041,921.0,9_47_54_51549
3042,922.0,9_47_54_51565
3043,923.0,9_47_54_51581
3044,924.0,9_47_54_51598
3045,925.0,9_47_54_51615
3046,926.0,9_47_54_51631
3047,927.0,9_47_54_51648
3048,928.0,9_47_54_51665
3049,929.0,9_47_54_51681
3050,930.0,9_47_54_51698
3051,931.0,9_47_54_51715
3052,932.0,9_47_54_51731
3053,933.0,9_47_54_51748
3054,934.0,9_47_54_51765
3055,935.0,9_47_55_51781
3056,936.0,9_47_55_51799
3057,937.0,9_47_55_51815
3058,938.0,9_47_55_51831
3059,939.0,9_47_55_51848
3060,940.0,9_47_55_51865
3061,941.0,9_47_55_51881
3062,942.0,9_47_55_51898
3063,943.0,9_47_55_51915
3064,944.0,9_47_55_51931
3065,945.0,9_47_55_51948
3066,946.0,9_47_55_51965
3067,947.0,9_47_55_51982
3068,948.0,9_47_55_51998
3069,949.0,9_47_55_52015
3070,950.0,9_47_55_52032
3071,951.0,9_47_55_52049
3072,952.0,9_47_55_52065
3073,953.0,9_47_55_52082
3074,954.0,9_47_55_52099
3075,955.0,9_47_55_52115
3076,956.0,9_47_55_52132
3077,957.0,9_47_55_52148
3078,958.0,9_47_55_52165
3079,959.0,9_47_55_52181
3080,960.0,9_47_55_52199
3081,961.0,9_47_55_52215
3082,962.0,9_47_55_52231
3083,963.0,9_47_55_52248
3084,964.0,9_47_55_52264
3085,965.0,9_47_55_52281
3086,966.0,9_47_55_52298
3087,967.0,9_47_55_52315
3088,968.0,9_47_55_52332
3089,969.0,9_47_55_52348
3090,970.0,9_47_55_52365
3091,971.0,9_47_55_52382
3092,972.0,9_47_55_52399
3093,973.0,9_47_55_52415
3094,974.0,9_47_55_52432
3095,975.0,9_47_55_52448
3096,976.0,9_47_55_52465
3097,977.0,9_47_55_52482
3098,978.0,9_47_55_52498
3099,979.0,9_47_55_52515
3100,980.0,9_47_55_52532
3101,981.0,9_47_55_52548
3102,982.0,9_47_55_52565
3103,983.0,9_47_55_52582
3104,984.0,9_47_55_52598
3105,985.0,9_47_55_52615
3106,986.0,9_47_55_52631
3107,987.0,9_47_55_52648
3108,988.0,9_47_55_52665
3109,989.0,9_47_55_52682
3110,990.0,9_47_55_52698
3111,991.0,9_47_55_52715
3112,992.0,9_47_55_52732
3113,993.0,9_47_55_52748
3114,994.0,9_47_55_52765
3115,995.0,9_47_56_52782
3116,996.0,9_47_56_52799
3117,997.0,9_47_56_52815
3118,998.0,9_47_56_52832
3119,999.0,9_47_56_52849
3120,1000.0,9_47_56_52865
3121,1001.0,9_47_56_52882
3122,1002.0,9_47_56_52898
3123,1003.0,9_47_56_52915
3124,1004.0,9_47_56_52932
3125,1005.0,9_47_56_52949
3126,1006.0,9_47_56_52965
3127,1007.0,9_47_56_52982
3128,1008.0,9_47_56_52998
3129,1009.0,9_47_56_53015
3130,1010.0,9_47_56_53032
3131,1011.0,9_47_56_53048
3132,1012.0,9_47_56_53065
3133,1013.0,9_47_56_53082
3134,1014.0,9_47_56_53098
3135,1015.0,9_47_56_53115
3136,1016.0,9_47_56_53132
3137,1017.0,9_47_56_53148
3138,1018.0,9_47_56_53165
3139,1019.0,9_47_56_53182
3140,1020.0,9_47_56_53198
3141,1021.0,9_47_56_53215
3142,1022.0,9_47_56_53232
3143,1023.0,9_47_56_53249
3144,0.0,9_47_56_53265
3145,1.0,9_47_56_53282
3146,2.0,9_47_56_53299
3147,3.0,9_47_56_53315
3148,4.0,9_47_56_53332
3149,5.0,9_47_56_53348
3150,6.0,9_47_56_53365
3151,7.0,9_47_56_53382
3152,8.0,9_47_56_53398
3153,9.0,9_47_56_53415
3154,10.0,9_47_56_53432
3155,11.0,9_47_56_53448
3156,12.0,9_47_56_53465
3157,13.0,9_47_56_53482
3158,14.0,9_47_56_53498
3159,15.0,9_47_56_53515
3160,16.0,9_47_56_53532
3161,17.0,9_47_56_53548
3162,18.0,9_47_56_53565
3163,19.0,9_47_56_53582
3164,20.0,9_47_56_53599
3165,21.0,9_47_56_53615
3166,22.0,9_47_56_53632
3167,23.0,9_47_56_53648
3168,24.0,9_47_56_53665
3169,25.0,9_47_56_53681
3170,26.0,9_47_56_53698
3171,27.0,9_47_56_53715
3172,28.0,9_47_56_53732
3173,29.0,9_47_56_53748
3174,30.0,9_47_56_53765
3175,31.0,9_47_57_53782
3176,32.0,9_47_57_53798
3177,33.0,9_47_57_53816
3178,34.0,9_47_57_53832
3179,35.0,9_47_57_53849
3180,36.0,9_47_57_53865
3181,37.0,9_47_57_53882
3182,38.0,9_47_57_53899
3183,39.0,9_47_57_53915
3184,40.0,9_47_57_53932
3185,41.0,9_47_57_53949
3186,42.0,9_47_57_53965
3187,43.0,9_47_57_53982
3188,44.0,9_47_57_53999
3189,45.0,9_47_57_54015
3190,46.0,9_47_57_54031
3191,47.0,9_47_57_54049
3192,48.0,9_47_57_54066
3193,49.0,9_47_57_54082
3194,50.0,9_47_57_54098
3195,51.0,9_47_57_54115
3196,52.0,9_47_57_54131
3197,53.0,9_47_57_54148
3198,54.0,9_47_57_54165
3199,55.0,9_47_57_54182
3200,56.0,9_47_57_54198
3201,57.0,9_47_57_54215
3202,58.0,9_47_57_54232
3203,59.0,9_47_57_54248
3204,60.0,9_47_57_54265
3205,61.0,9_47_57_54285
3206,62.0,9_47_57_54301
3207,63.0,9_47_57_54318
3208,64.0,9_47_57_54335
3209,65.0,9_47_57_54352
3210,66.0,9_47_57_54368
3211,67.0,9_47_57_54385
3212,68.0,9_47_57_54401
3213,69.0,9_47_57_54418
3214,70.0,9_47_57_54435
3215,71.0,9_47_57_54451
3216,72.0,9_47_57_54468
3217,73.0,9_47_57_54485
3218,74.0,9_47_57_54502
3219,75.0,9_47_57_54518
3220,76.0,9_47_57_54535
3221,77.0,9_47_57_54552
3222,78.0,9_47_57_54568
3223,79.0,9_47_57_54585
3224,80.0,9_47_57_54601
3225,81.0,9_47_57_54619
3226,82.0,9_47_57_54635
3227,83.0,9_47_57_54652
3228,84.0,9_47_57_54668
3229,85.0,9_47_57_54685
3230,86.0,9_47_57_54701
3231,87.0,9_47_57_54719
3232,88.0,9_47_57_54735
3233,89.0,9_47_57_54752
3234,90.0,9_47_57_54768
3235,91.0,9_47_58_54785
3236,92.0,9_47_58_54801
3237,93.0,9_47_58_54818
3238,94.0,9_47_58_54835
3239,95.0,9_47_58_54851
3240,96.0,9_47_58_54868
3241,97.0,9_47_58_54884
3242,98.0,9_47_58_54902
3243,99.0,9_47_58_54918
3244,100.0,9_47_58_54935
3245,101.0,9_47_58_54952
3246,102.0,9_47_58_54968
3247,103.0,9_47_58_54985
3248,104.0,9_47_58_55001
3249,105.0,9_47_58_55018
3250,106.0,9_47_58_55034
3251,107.0,9_47_58_55051
3252,108.0,9_47_58_55069
3253,109.0,9_47_58_55085
3254,110.0,9_47_58_55102
3255,111.0,9_47_58_55118
3256,112.0,9_47_58_55135
3257,113.0,9_47_58_55152
3258,114.0,9_47_58_55169
3259,115.0,9_47_58_55185
3260,116.0,9_47_58_55201
3261,117.0,9_47_58_55218
3262,118.0,9_47_58_55235
3263,119.0,9_47_58_55252
3264,120.0,9_47_58_55268
3265,121.0,9_47_58_55285
3266,122.0,9_47_58_55301
3267,123.0,9_47_58_55318
3268,124.0,9_47_58_55335
3269,125.0,9_47_58_55352
3270,126.0,9_47_58_55368
3271,127.0,9_47_58_55385
3272,128.0,9_47_58_55401
3273,129.0,9_47_58_55418
3274,130.0,9_47_58_55435
3275,131.0,9_47_58_55451
3276,132.0,9_47_58_55468
3277,133.0,9_47_58_55484
3278,134.0,9_47_58_55502
3279,135.0,9_47_58_55518
3280,136.0,9_47_58_55535
3281,137.0,9_47_58_55551
3282,138.0,9_47_58_55569
3283,139.0,9_47_58_55585
3284,140.0,9_47_58_55602
3285,141.0,9_47_58_55618
3286,142.0,9_47_58_55635
3287,143.0,9_47_58_55651
3288,144.0,9_47_58_55668
3289,145.0,9_47_58_55685
3290,146.0,9_47_58_55702
3291,147.0,9_47_58_55718
3292,148.0,9_47_58_55735
3293,149.0,9_47_58_55752
3294,150.0,9_47_58_55768
3295,151.0,9_47_59_55785
3296,152.0,9_47_59_55801
3297,153.0,9_47_59_55818
3298,154.0,9_47_59_55835
3299,155.0,9_47_59_55851
3300,156.0,9_47_59_55869
3301,157.0,9_47_59_55885
3302,158.0,9_47_59_55901
3303,159.0,9_47_59_55919
3304,160.0,9_47_59_55935
3305,161.0,9_47_59_55952
3306,162.0,9_47_59_55968
3307,163.0,9_47_59_55985
3308,164.0,9_47_59_56002
3309,165.0,9_47_59_56018
3310,166.0,9_47_59_56035
3311,167.0,9_47_59_56051
3312,168.0,9_47_59_56068
3313,169.0,9_47_59_56085
3314,170.0,9_47_59_56102
3315,171.0,9_47_59_56118
3316,172.0,9_47_59_56135
3317,173.0,9_47_59_56151
3318,174.0,9_47_59_56168
3319,175.0,9_47_59_56185
3320,176.0,9_47_59_56202
3321,177.0,9_47_59_56218
3322,178.0,9_47_59_56235
3323,179.0,9_47_59_56252
3324,180.0,9_47_59_56268
3325,181.0,9_47_59_56285
3326,182.0,9_47_59_56301
3327,183.0,9_47_59_56318
3328,184.0,9_47_59_56335
3329,185.0,9_47_59_56352
3330,186.0,9_47_59_56368
3331,187.0,9_47_59_56385
3332,188.0,9_47_59_56402
3333,189.0,9_47_59_56419
3334,190.0,9_47_59_56435
3335,191.0,9_47_59_56452
3336,192.0,9_47_59_56468
3337,193.0,9_47_59_56485
3338,194.0,9_47_59_56502
3339,195.0,9_47_59_56518
3340,196.0,9_47_59_56535
3341,197.0,9_47_59_56552
3342,198.0,9_47_59_56568
3343,199.0,9_47_59_56584
3344,200.0,9_47_59_56602
3345,201.0,9_47_59_56618
3346,202.0,9_47_59_56635
3347,203.0,9_47_59_56652
3348,204.0,9_47_59_56668
3349,205.0,9_47_59_56685
3350,206.0,9_47_59_56701
3351,207.0,9_47_59_56719
3352,208.0,9_47_59_56735
3353,209.0,9_47_59_56752
3354,210.0,9_47_59_56768
3355,211.0,9_48_0_56785
3356,212.0,9_48_0_56802
3357,213.0,9_48_0_56818
3358,214.0,9_48_0_56834
3359,215.0,9_48_0_56851
3360,216.0,9_48_0_56868
3361,217.0,9_48_0_56884
3362,218.0,9_48_0_56902
3363,219.0,9_48_0_56918
3364,220.0,9_48_0_56935
3365,221.0,9_48_0_56952
3366,222.0,9_48_0_56969
3367,223.0,9_48_0_56985
3368,224.0,9_48_0_57002
3369,225.0,9_48_0_57018
3370,226.0,9_48_0_57035
3371,227.0,9_48_0_57052
3372,228.0,9_48_0_57068
3373,229.0,9_48_0_57085
3374,230.0,9_48_0_57102
3375,231.0,9_48_0_57119
3376,232.0,9_48_0_57135
3377,233.0,9_48_0_57152
3378,234.0,9_48_0_57168
3379,235.0,9_48_0_57185
3380,236.0,9_48_0_57202
3381,237.0,9_48_0_57219
3382,238.0,9_48_0_57235
3383,239.0,9_48_0_57252
3384,240.0,9_48_0_57268
3385,241.0,9_48_0_57285
3386,242.0,9_48_0_57302
3387,243.0,9_48_0_57318
3388,244.0,9_48_0_57335
3389,245.0,9_48_0_57352
3390,246.0,9_48_0_57369
3391,247.0,9_48_0_57384
3392,248.0,9_48_0_57402
3393,249.0,9_48_0_57418
3394,250.0,9_48_0_57435
3395,251.0,9_48_0_57452
3396,252.0,9_48_0_57468
3397,253.0,9_48_0_57485
3398,254.0,9_48_0_57502
3399,255.0,9_48_0_57518
3400,256.0,9_48_0_57535
3401,257.0,9_48_0_57551
3402,258.0,9_48_0_57568
3403,259.0,9_48_0_57585
3404,260.0,9_48_0_57601
3405,261.0,9_48_0_57618
3406,262.0,9_48_0_57635
3407,263.0,9_48_0_57652
3408,264.0,9_48_0_57669
3409,265.0,9_48_0_57685
3410,266.0,9_48_0_57702
3411,267.0,9_48_0_57718
3412,268.0,9_48_0_57735
3413,269.0,9_48_0_57752
3414,270.0,9_48_0_57768
3415,271.0,9_48_1_57785
3416,272.0,9_48_1_57801
3417,273.0,9_48_1_57818
3418,274.0,9_48_1_57835
3419,275.0,9_48_1_57852
3420,276.0,9_48_1_57869
3421,277.0,9_48_1_57885
3422,278.0,9_48_1_57902
3423,279.0,9_48_1_57918
3424,280.0,9_48_1_57935
3425,281.0,9_48_1_57952
3426,282.0,9_48_1_57968
3427,283.0,9_48_1_57985
3428,284.0,9_48_1_58002
3429,285.0,9_48_1_58018
3430,286.0,9_48_1_58035
3431,287.0,9_48_1_58052
3432,288.0,9_48_1_58068
3433,289.0,9_48_1_58085
3434,290.0,9_48_1_58101
3435,291.0,9_48_1_58118
3436,292.0,9_48_1_58135
3437,293.0,9_48_1_58152
3438,294.0,9_48_1_58168
3439,295.0,9_48_1_58185
3440,296.0,9_48_1_58201
3441,297.0,9_48_1_58218
3442,298.0,9_48_1_58235
3443,299.0,9_48_1_58252
3444,300.0,9_48_1_58268
3445,301.0,9_48_1_58285
3446,302.0,9_48_1_58302
3447,303.0,9_48_1_58318
3448,304.0,9_48_1_58335
3449,305.0,9_48_1_58352
3450,306.0,9_48_1_58368
3451,307.0,9_48_1_58385
3452,308.0,9_48_1_58401
3453,309.0,9_48_1_58418
3454,310.0,9_48_1_58435
3455,311.0,9_48_1_58451
3456,312.0,9_48_1_58468
3457,313.0,9_48_1_58485
3458,314.0,9_48_1_58502
3459,315.0,9_48_1_58519
3460,316.0,9_48_1_58535
3461,317.0,9_48_1_58552
3462,318.0,9_48_1_58568
3463,319.0,9_48_1_58585
3464,320.0,9_48_1_58601
3465,321.0,9_48_1_58618
3466,322.0,9_48_1_58635
3467,323.0,9_48_1_58652
3468,324.0,9_48_1_58668
3469,325.0,9_48_1_58685
3470,326.0,9_48_1_58702
3471,327.0,9_48_1_58719
3472,328.0,9_48_1_58735
3473,329.0,9_48_1_58752
3474,330.0,9_48_1_58769
3475,331.0,9_48_2_58785
3476,332.0,9_48_2_58801
3477,333.0,9_48_2_58819
3478,334.0,9_48_2_58835
3479,335.0,9_48_2_58852
3480,336.0,9_48_2_58868
3481,337.0,9_48_2_58885
3482,338.0,9_48_2_58901
3483,339.0,9_48_2_58919
3484,340.0,9_48_2_58935
3485,341.0,9_48_2_58952
3486,342.0,9_48_2_58968
3487,343.0,9_48_2_58985
3488,344.0,9_48_2_59001
3489,345.0,9_48_2_59019
3490,346.0,9_48_2_59035
3491,347.0,9_48_2_59052
3492,348.0,9_48_2_59068
3493,349.0,9_48_2_59085
3494,350.0,9_48_2_59101
3495,351.0,9_48_2_59118
3496,352.0,9_48_2_59135
3497,353.0,9_48_2_59152
3498,354.0,9_48_2_59169
3499,355.0,9_48_2_59185
3500,356.0,9_48_2_59201
3501,357.0,9_48_2_59218
3502,358.0,9_48_2_59235
3503,359.0,9_48_2_59252
3504,360.0,9_48_2_59269
3505,361.0,9_48_2_59285
3506,362.0,9_48_2_59302
3507,363.0,9_48_2_59319
3508,364.0,9_48_2_59335
3509,365.0,9_48_2_59352
3510,366.0,9_48_2_59369
3511,367.0,9_48_2_59385
3512,368.0,9_48_2_59402
3513,369.0,9_48_2_59419
3514,370.0,9_48_2_59435
3515,371.0,9_48_2_59452
3516,372.0,9_48_2_59468
3517,373.0,9_48_2_59486
3518,374.0,9_48_2_59501
3519,375.0,9_48_2_59519
3520,376.0,9_48_2_59535
3521,377.0,9_48_2_59551
3522,378.0,9_48_2_59569
3523,379.0,9_48_2_59585
3524,380.0,9_48_2_59602
3525,381.0,9_48_2_59618
3526,382.0,9_48_2_59635
3527,383.0,9_48_2_59652
3528,384.0,9_48_2_59668
3529,385.0,9_48_2_59685
3530,386.0,9_48_2_59702
3531,387.0,9_48_2_59719
3532,388.0,9_48_2_59735
3533,389.0,9_48_2_59752
3534,390.0,9_48_2_59769
3535,391.0,9_48_3_59785
3536,392.0,9_48_3_59802
3537,393.0,9_48_3_59818
3538,394.0,9_48_3_59835
3539,395.0,9_48_3_59852
3540,396.0,9_48_3_59869
3541,397.0,9_48_3_59885
3542,398.0,9_48_3_59902
3543,399.0,9_48_3_59918
3544,400.0,9_48_3_59935
3545,401.0,9_48_3_59951
3546,402.0,9_48_3_59969
3547,403.0,9_48_3_59985
3548,404.0,9_48_3_60002
3549,405.0,9_48_3_60018
3550,406.0,9_48_3_60035
3551,407.0,9_48_3_60051
3552,408.0,9_48_3_60069
3553,409.0,9_48_3_60085
3554,410.0,9_48_3_60102
3555,411.0,9_48_3_60118
3556,412.0,9_48_3_60135
3557,413.0,9_48_3_60152
3558,414.0,9_48_3_60190
3559,415.0,9_48_3_60206
3560,416.0,9_48_3_60223
3561,417.0,9_48_3_60240
3562,418.0,9_48_3_60256
3563,419.0,9_48_3_60273
3564,420.0,9_48_3_60289
3565,421.0,9_48_3_60307
3566,422.0,9_48_3_60323
3567,423.0,9_48_3_60340
3568,424.0,9_48_3_60356
3569,425.0,9_48_3_60373
3570,426.0,9_48_3_60390
3571,427.0,9_48_3_60406
3572,428.0,9_48_3_60623
3573,429.0,9_48_3_60645
3574,430.0,9_48_3_60662
3575,431.0,9_48_3_60679
3576,432.0,9_48_3_60696
3577,433.0,9_48_3_60712
3578,434.0,9_48_3_60729
3579,435.0,9_48_3_60745
3580,436.0,9_48_3_60763
3581,437.0,9_48_4_60779
3582,438.0,9_48_4_60795
3583,439.0,9_48_4_60812
3584,440.0,9_48_4_60828
3585,441.0,9_48_4_60846
3586,442.0,9_48_4_60862
3587,443.0,9_48_4_60879
3588,444.0,9_48_4_60895
3589,445.0,9_48_4_60912
3590,446.0,9_48_4_60929
3591,447.0,9_48_4_60945
3592,448.0,9_48_4_60962
3593,449.0,9_48_4_60979
3594,450.0,9_48_4_60995
3595,451.0,9_48_4_61012
3596,452.0,9_48_4_61028
3597,453.0,9_48_4_61045
3598,454.0,9_48_4_61063
3599,455.0,9_48_4_61079
3600,456.0,9_48_4_61095
3601,457.0,9_48_4_61112
3602,458.0,9_48_4_61129
3603,459.0,9_48_4_61147
3604,460.0,9_48_4_61163
3605,461.0,9_48_4_61179
3606,462.0,9_48_4_61195
3607,463.0,9_48_4_61212
3608,464.0,9_48_4_61229
3609,465.0,9_48_4_61246
3610,466.0,9_48_4_61262
3611,467.0,9_48_4_61279
3612,468.0,9_48_4_61295
3613,469.0,9_48_4_61312
3614,470.0,9_48_4_61329
3615,471.0,9_48_4_61346
3616,472.0,9_48_4_61362
3617,473.0,9_48_4_61379
3618,474.0,9_48_4_61395
3619,475.0,9_48_4_61413
3620,476.0,9_48_4_61429
3621,477.0,9_48_4_61445
3622,478.0,9_48_4_61463
3623,479.0,9_48_4_61479
3624,480.0,9_48_4_61495
3625,481.0,9_48_4_61512
3626,482.0,9_48_4_61529
3627,483.0,9_48_4_61546
3628,484.0,9_48_4_61562
3629,485.0,9_48_4_61579
3630,486.0,9_48_4_61596
3631,487.0,9_48_4_61612
3632,488.0,9_48_4_61629
3633,489.0,9_48_4_61645
3634,490.0,9_48_4_61663
3635,491.0,9_48_4_61679
3636,492.0,9_48_4_61696
3637,493.0,9_48_4_61712
3638,494.0,9_48_4_61729
3639,495.0,9_48_4_61745
3640,496.0,9_48_4_61762
3641,497.0,9_48_5_61779
3642,498.0,9_48_5_61796
3643,499.0,9_48_5_61812
3644,500.0,9_48_5_61829
3645,501.0,9_48_5_61846
3646,502.0,9_48_5_61862
3647,503.0,9_48_5_61879
3648,504.0,9_48_5_61896
3649,505.0,9_48_5_61912
3650,506.0,9_48_5_61929
3651,507.0,9_48_5_61946
3652,508.0,9_48_5_61962
3653,509.0,9_48_5_61979
3654,510.0,9_48_5_61995
3655,511.0,9_48_5_62012
3656,512.0,9_48_5_62029
3657,513.0,9_48_5_62046
3658,514.0,9_48_5_62062
3659,515.0,9_48_5_62079
3660,516.0,9_48_5_62096
3661,517.0,9_48_5_62112
3662,518.0,9_48_5_62129
3663,519.0,9_48_5_62146
3664,520.0,9_48_5_62162
3665,521.0,9_48_5_62179
3666,522.0,9_48_5_62196
3667,523.0,9_48_5_62212
3668,524.0,9_48_5_62229
3669,525.0,9_48_5_62246
3670,526.0,9_48_5_62263
3671,527.0,9_48_5_62279
3672,528.0,9_48_5_62296
3673,529.0,9_48_5_62312
3674,530.0,9_48_5_62329
3675,531.0,9_48_5_62345
3676,532.0,9_48_5_62362
3677,533.0,9_48_5_62379
3678,534.0,9_48_5_62396
3679,535.0,9_48_5_62412
3680,536.0,9_48_5_62429
3681,537.0,9_48_5_62446
3682,538.0,9_48_5_62462
3683,539.0,9_48_5_62479
3684,540.0,9_48_5_62496
3685,541.0,9_48_5_62512
3686,542.0,9_48_5_62529
3687,543.0,9_48_5_62545
3688,544.0,9_48_5_62562
3689,545.0,9_48_5_62579
3690,546.0,9_48_5_62596
3691,547.0,9_48_5_62612
3692,548.0,9_48_5_62629
3693,549.0,9_48_5_62646
3694,550.0,9_48_5_62662
3695,551.0,9_48_5_62679
3696,552.0,9_48_5_62696
3697,553.0,9_48_5_62712
3698,554.0,9_48_5_62729
3699,555.0,9_48_5_62745
3700,556.0,9_48_5_62762
3701,557.0,9_48_6_62779
3702,558.0,9_48_6_62795
3703,559.0,9_48_6_62812
3704,560.0,9_48_6_62829
3705,561.0,9_48_6_62845
3706,562.0,9_48_6_62862
3707,563.0,9_48_6_62878
3708,564.0,9_48_6_62896
3709,565.0,9_48_6_62913
3710,566.0,9_48_6_62929
3711,567.0,9_48_6_62946
3712,568.0,9_48_6_62963
3713,569.0,9_48_6_62979
3714,570.0,9_48_6_62996
3715,571.0,9_48_6_63013
3716,572.0,9_48_6_63029
3717,573.0,9_48_6_63046
3718,574.0,9_48_6_63062
3719,575.0,9_48_6_63079
3720,576.0,9_48_6_63095
3721,577.0,9_48_6_63112
3722,578.0,9_48_6_63129
3723,579.0,9_48_6_63146
3724,580.0,9_48_6_63162
3725,581.0,9_48_6_63179
3726,582.0,9_48_6_63195
3727,583.0,9_48_6_63212
3728,584.0,9_48_6_63229
3729,585.0,9_48_6_63245
3730,586.0,9_48_6_63262
3731,587.0,9_48_6_63279
3732,588.0,9_48_6_63296
3733,589.0,9_48_6_63313
3734,590.0,9_48_6_63329
3735,591.0,9_48_6_63346
3736,592.0,9_48_6_63363
3737,593.0,9_48_6_63379
3738,594.0,9_48_6_63395
3739,595.0,9_48_6_63413
3740,596.0,9_48_6_63429
3741,597.0,9_48_6_63445
3742,598.0,9_48_6_63462
3743,599.0,9_48_6_63479
3744,600.0,9_48_6_63496
3745,601.0,9_48_6_63512
3746,602.0,9_48_6_63529
3747,603.0,9_48_6_63545
3748,604.0,9_48_6_63563
3749,605.0,9_48_6_63579
3750,606.0,9_48_6_63595
3751,607.0,9_48_6_63612
3752,608.0,9_48_6_63629
3753,609.0,9_48_6_63645
3754,610.0,9_48_6_63662
3755,611.0,9_48_6_63679
3756,612.0,9_48_6_63696
3757,613.0,9_48_6_63712
3758,614.0,9_48_6_63729
3759,615.0,9_48_6_63745
3760,616.0,9_48_6_63762
3761,617.0,9_48_7_63779
3762,618.0,9_48_7_63795
3763,619.0,9_48_7_63812
3764,620.0,9_48_7_63829
3765,621.0,9_48_7_63846
3766,622.0,9_48_7_63862
3767,623.0,9_48_7_63879
3768,624.0,9_48_7_63896
3769,625.0,9_48_7_63912
3770,626.0,9_48_7_63929
3771,627.0,9_48_7_63946
3772,628.0,9_48_7_63963
3773,629.0,9_48_7_63979
3774,630.0,9_48_7_63996
3775,631.0,9_48_7_64012
3776,632.0,9_48_7_64029
3777,633.0,9_48_7_64045
3778,634.0,9_48_7_64063
3779,635.0,9_48_7_64079
3780,636.0,9_48_7_64096
3781,637.0,9_48_7_64112
3782,638.0,9_48_7_64129
3783,639.0,9_48_7_64146
3784,640.0,9_48_7_64162
3785,641.0,9_48_7_64179
3786,642.0,9_48_7_64196
3787,643.0,9_48_7_64213
3788,644.0,9_48_7_64229
3789,645.0,9_48_7_64245
3790,646.0,9_48_7_64262
3791,647.0,9_48_7_64279
3792,648.0,9_48_7_64303
3793,649.0,9_48_7_64319
3794,650.0,9_48_7_64337
3795,651.0,9_48_7_64353
3796,652.0,9_48_7_64370
3797,653.0,9_48_7_64386
3798,654.0,9_48_7_64403
3799,655.0,9_48_7_64419
3800,656.0,9_48_7_64436
3801,657.0,9_48_7_64452
3802,658.0,9_48_7_64469
3803,659.0,9_48_7_64486
3804,660.0,9_48_7_64503
3805,661.0,9_48_7_64519
3806,662.0,9_48_7_64536
3807,663.0,9_48_7_64552
3808,664.0,9_48_7_64569
3809,665.0,9_48_7_64586
3810,666.0,9_48_7_64603
3811,667.0,9_48_7_64619
3812,668.0,9_48_7_64636
3813,669.0,9_48_7_64653
3814,670.0,9_48_7_64669
3815,671.0,9_48_7_64686
3816,672.0,9_48_7_64703
3817,673.0,9_48_7_64720
3818,674.0,9_48_7_64736
3819,675.0,9_48_7_64753
3820,676.0,9_48_7_64770
3821,677.0,9_48_8_64786
3822,678.0,9_48_8_64802
3823,679.0,9_48_8_64820
3824,680.0,9_48_8_64836
3825,681.0,9_48_8_64853
3826,682.0,9_48_8_64870
3827,683.0,9_48_8_64886
3828,684.0,9_48_8_64903
3829,685.0,9_48_8_64919
3830,686.0,9_48_8_64936
3831,687.0,9_48_8_64953
3832,688.0,9_48_8_64969
3833,689.0,9_48_8_64986
3834,690.0,9_48_8_65003
3835,691.0,9_48_8_65020
3836,692.0,9_48_8_65036
3837,693.0,9_48_8_65052
3838,694.0,9_48_8_65069
3839,695.0,9_48_8_65086
3840,696.0,9_48_8_65103
3841,697.0,9_48_8_65119
3842,698.0,9_48_8_65136
3843,699.0,9_48_8_65153
3844,700.0,9_48_8_65169
3845,701.0,9_48_8_65186
3846,702.0,9_48_8_65203
3847,703.0,9_48_8_65219
3848,704.0,9_48_8_65237
3849,705.0,9_48_8_65253
3850,706.0,9_48_8_65269
3851,707.0,9_48_8_65286
3852,708.0,9_48_8_65303
3853,709.0,9_48_8_65319
3854,710.0,9_48_8_65336
3855,711.0,9_48_8_65353
3856,712.0,9_48_8_65370
3857,713.0,9_48_8_65386
3858,714.0,9_48_8_65403
3859,715.0,9_48_8_65419
3860,716.0,9_48_8_65436
3861,717.0,9_48_8_65453
3862,718.0,9_48_8_65470
3863,719.0,9_48_8_65486
3864,720.0,9_48_8_65503
3865,721.0,9_48_8_65519
3866,722.0,9_48_8_65536
3867,723.0,9_48_8_65553
3868,724.0,9_48_8_65569
3869,725.0,9_48_8_65586
3870,726.0,9_48_8_65603
3871,727.0,9_48_8_65619
3872,728.0,9_48_8_65636
3873,729.0,9_48_8_65653
3874,730.0,9_48_8_65669
3875,731.0,9_48_8_65687
3876,732.0,9_48_8_65703
3877,733.0,9_48_8_65720
3878,734.0,9_48_8_65736
3879,735.0,9_48_8_65753
3880,736.0,9_48_8_65769
3881,737.0,9_48_9_65786
3882,738.0,9_48_9_65803
3883,739.0,9_48_9_65819
3884,740.0,9_48_9_65836
3885,741.0,9_48_9_65853
3886,742.0,9_48_9_65869
3887,743.0,9_48_9_65886
3888,744.0,9_48_9_65902
3889,745.0,9_48_9_65920
3890,746.0,9_48_9_65936
3891,747.0,9_48_9_65953
3892,748.0,9_48_9_65969
3893,749.0,9_48_9_65986
3894,750.0,9_48_9_66003
3895,751.0,9_48_9_66019
3896,752.0,9_48_9_66036
3897,753.0,9_48_9_66053
3898,754.0,9_48_9_66069
3899,755.0,9_48_9_66087
3900,756.0,9_48_9_66103
3901,757.0,9_48_9_66120
3902,758.0,9_48_9_66136
3903,759.0,9_48_9_66153
3904,760.0,9_48_9_66169
3905,761.0,9_48_9_66186
3906,762.0,9_48_9_66203
3907,763.0,9_48_9_66219
3908,764.0,9_48_9_66236
3909,765.0,9_48_9_66253
3910,766.0,9_48_9_66269
3911,767.0,9_48_9_66286
3912,768.0,9_48_9_66303
3913,769.0,9_48_9_66320
3914,770.0,9_48_9_66336
3915,771.0,9_48_9_66353
3916,772.0,9_48_9_66369
3917,773.0,9_48_9_66387
3918,774.0,9_48_9_66403
3919,775.0,9_48_9_66419
3920,776.0,9_48_9_66436
3921,777.0,9_48_9_66453
3922,778.0,9_48_9_66469
3923,779.0,9_48_9_66487
3924,780.0,9_48_9_66503
3925,781.0,9_48_9_66519
3926,782.0,9_48_9_66536
3927,783.0,9_48_9_66553
3928,784.0,9_48_9_66570
3929,785.0,9_48_9_66586
3930,786.0,9_48_9_66603
3931,787.0,9_48_9_66619
3932,788.0,9_48_9_66636
3933,789.0,9_48_9_66653
3934,790.0,9_48_9_66670
3935,791.0,9_48_9_66686
3936,792.0,9_48_9_66703
3937,793.0,9_48_9_66719
3938,794.0,9_48_9_66736
3939,795.0,9_48_9_66753
3940,796.0,9_48_9_66769
3941,797.0,9_48_10_66786
3942,798.0,9_48_10_66803
3943,799.0,9_48_10_66819
3944,800.0,9_48_10_66836
3945,801.0,9_48_10_66853
3946,802.0,9_48_10_66870
3947,803.0,9_48_10_66886
3948,804.0,9_48_10_66902
3949,805.0,9_48_10_66920
3950,806.0,9_48_10_66936
3951,807.0,9_48_10_66953
3952,808.0,9_48_10_66969
3953,809.0,9_48_10_66986
3954,810.0,9_48_10_67003
3955,811.0,9_48_10_67019
3956,812.0,9_48_10_67036
3957,813.0,9_48_10_67053
3958,814.0,9_48_10_67070
3959,815.0,9_48_10_67086
3960,816.0,9_48_10_67102
3961,817.0,9_48_10_67120
3962,818.0,9_48_10_67136
3963,819.0,9_48_10_67153
3964,820.0,9_48_10_67169
3965,821.0,9_48_10_67186
3966,822.0,9_48_10_67203
3967,823.0,9_48_10_67220
3968,824.0,9_48_10_67237
3969,825.0,9_48_10_67253
3970,826.0,9_48_10_67269
3971,827.0,9_48_10_67286
3972,828.0,9_48_10_67303
3973,829.0,9_48_10_67320
3974,830.0,9_48_10_67336
3975,831.0,9_48_10_67353
3976,832.0,9_48_10_67381
3977,833.0,9_48_10_67421
3978,834.0,9_48_10_67437
3979,835.0,9_48_10_67454
3980,836.0,9_48_10_67471
3981,837.0,9_48_10_67488
3982,838.0,9_48_10_67504
3983,839.0,9_48_10_67521
3984,840.0,9_48_10_67537
3985,841.0,9_48_10_67555
3986,842.0,9_48_10_67571
3987,843.0,9_48_10_67588
3988,844.0,9_48_10_67604
3989,845.0,9_48_10_67621
3990,846.0,9_48_10_67637
3991,847.0,9_48_10_67655
3992,848.0,9_48_10_67671
3993,849.0,9_48_10_67688
3994,850.0,9_48_10_67704
3995,851.0,9_48_10_67721
3996,852.0,9_48_10_67738
3997,853.0,9_48_10_67754
3998,854.0,9_48_10_67771
3999,855.0,9_48_11_67788
4000,856.0,9_48_11_67804
4001,857.0,9_48_11_67821
4002,858.0,9_48_11_67837
4003,859.0,9_48_11_67855
4004,860.0,9_48_11_67871
4005,861.0,9_48_11_67887
4006,862.0,9_48_11_67905
4007,863.0,9_48_11_67921
4008,864.0,9_48_11_67937
4009,865.0,9_48_11_67954
4010,866.0,9_48_11_67971
4011,867.0,9_48_11_67987
4012,868.0,9_48_11_68004
4013,869.0,9_48_11_68021
4014,870.0,9_48_11_68037
4015,871.0,9_48_11_68054
4016,872.0,9_48_11_68071
4017,873.0,9_48_11_68087
4018,874.0,9_48_11_68104
4019,875.0,9_48_11_68121
4020,876.0,9_48_11_68138
4021,877.0,9_48_11_68154
4022,878.0,9_48_11_68171
4023,879.0,9_48_11_68187
4024,880.0,9_48_11_68205
4025,881.0,9_48_11_68221
4026,882.0,9_48_11_68238
4027,883.0,9_48_11_68254
4028,884.0,9_48_11_68271
4029,885.0,9_48_11_68287
4030,886.0,9_48_11_68304
4031,887.0,9_48_11_68321
4032,888.0,9_48_11_68337
4033,889.0,9_48_11_68355
4034,890.0,9_48_11_68370
4035,891.0,9_48_11_68387
4036,892.0,9_48_11_68405
4037,893.0,9_48_11_68421
4038,894.0,9_48_11_68438
4039,895.0,9_48_11_68454
4040,896.0,9_48_11_68471
4041,897.0,9_48_11_68488
4042,898.0,9_48_11_68504
4043,899.0,9_48_11_68521
4044,900.0,9_48_11_68538
4045,901.0,9_48_11_68554
4046,902.0,9_48_11_68571
4047,903.0,9_48_11_68587
4048,904.0,9_48_11_68604
4049,905.0,9_48_11_68621
4050,906.0,9_48_11_68638
4051,907.0,9_48_11_68654
4052,908.0,9_48_11_68671
4053,909.0,9_48_11_68688
4054,910.0,9_48_11_68705
4055,911.0,9_48_11_68721
4056,912.0,9_48_11_68737
4057,913.0,9_48_11_68754
4058,914.0,9_48_11_68771
4059,915.0,9_48_12_68787
4060,916.0,9_48_12_68805
4061,917.0,9_48_12_68821
4062,918.0,9_48_12_68838
4063,919.0,9_48_12_68854
4064,920.0,9_48_12_68871
4065,921.0,9_48_12_68888
4066,922.0,9_48_12_68905
4067,923.0,9_48_12_68921
4068,924.0,9_48_12_68937
4069,925.0,9_48_12_68955
4070,926.0,9_48_12_68971
4071,927.0,9_48_12_68988
4072,928.0,9_48_12_69005
4073,929.0,9_48_12_69021
4074,930.0,9_48_12_69038
4075,931.0,9_48_12_69055
4076,932.0,9_48_12_69071
4077,933.0,9_48_12_69087
4078,934.0,9_48_12_69104
4079,935.0,9_48_12_69121
4080,936.0,9_48_12_69138
4081,937.0,9_48_12_69154
4082,938.0,9_48_12_69171
4083,939.0,9_48_12_69188
4084,940.0,9_48_12_69205
4085,941.0,9_48_12_69221
4086,942.0,9_48_12_69237
4087,943.0,9_48_12_69254
4088,944.0,9_48_12_69271
4089,945.0,9_48_12_69287
4090,946.0,9_48_12_69313
4091,947.0,9_48_12_69330
4092,948.0,9_48_12_69346
4093,949.0,9_48_12_69363
4094,950.0,9_48_12_69379
4095,951.0,9_48_12_69396
4096,952.0,9_48_12_69413
4097,953.0,9_48_12_69430
4098,954.0,9_48_12_69446
4099,955.0,9_48_12_69463
4100,956.0,9_48_12_69480
4101,957.0,9_48_12_69496
4102,958.0,9_48_12_69513
4103,959.0,9_48_12_69530
4104,960.0,9_48_12_69546
4105,961.0,9_48_12_69563
4106,962.0,9_48_12_69580
4107,963.0,9_48_12_69596
4108,964.0,9_48_12_69613
4109,965.0,9_48_12_69630
4110,966.0,9_48_12_69647
4111,967.0,9_48_12_69663
4112,968.0,9_48_12_69679
4113,969.0,9_48_12_69697
4114,970.0,9_48_12_69713
4115,971.0,9_48_12_69730
4116,972.0,9_48_12_69747
4117,973.0,9_48_12_69764
4118,974.0,9_48_13_69780
4119,975.0,9_48_13_69796
4120,976.0,9_48_13_69813
4121,977.0,9_48_13_69829
4122,978.0,9_48_13_69847
4123,979.0,9_48_13_69863
4124,980.0,9_48_13_69880
4125,981.0,9_48_13_69897
4126,982.0,9_48_13_69913
4127,983.0,9_48_13_69930
4128,984.0,9_48_13_69946
4129,985.0,9_48_13_69963
4130,986.0,9_48_13_69980
4131,987.0,9_48_13_69996
4132,988.0,9_48_13_70014
4133,989.0,9_48_13_70030
4134,990.0,9_48_13_70047
4135,991.0,9_48_13_70063
4136,992.0,9_48_13_70080
4137,993.0,9_48_13_70097
4138,994.0,9_48_13_70113
4139,995.0,9_48_13_70129
4140,996.0,9_48_13_70146
4141,997.0,9_48_13_70163
4142,998.0,9_48_13_70180
4143,999.0,9_48_13_70197
4144,1000.0,9_48_13_70213
4145,1001.0,9_48_13_70230
4146,1002.0,9_48_13_70246
4147,1003.0,9_48_13_70263
4148,1004.0,9_48_13_70279
4149,1005.0,9_48_13_70297
4150,1006.0,9_48_13_70313
4151,1007.0,9_48_13_70330
4152,1008.0,9_48_13_70346
4153,1009.0,9_48_13_70364
4154,1010.0,9_48_13_70380
4155,1011.0,9_48_13_70396
4156,1012.0,9_48_13_70413
4157,1013.0,9_48_13_70430
4158,1014.0,9_48_13_70447
4159,1015.0,9_48_13_70463
4160,1016.0,9_48_13_70480
4161,1017.0,9_48_13_70496
4162,1018.0,9_48_13_70513
4163,1019.0,9_48_13_70530
4164,1020.0,9_48_13_70547
4165,1021.0,9_48_13_70563
4166,1022.0,9_48_13_70580
4167,1023.0,9_48_13_70597
4168,0.0,9_48_13_70614
4169,1.0,9_48_13_70630
4170,2.0,9_48_13_70647
4171,3.0,9_48_13_70663
4172,4.0,9_48_13_70680
4173,5.0,9_48_13_70696
4174,6.0,9_48_13_70713
4175,7.0,9_48_13_70730
4176,8.0,9_48_13_70747
4177,9.0,9_48_13_70763
4178,10.0,9_48_14_70780
4179,11.0,9_48_14_70796
4180,12.0,9_48_14_70813
4181,13.0,9_48_14_70830
4182,14.0,9_48_14_70847
4183,15.0,9_48_14_70863
4184,16.0,9_48_14_70880
4185,17.0,9_48_14_70896
4186,18.0,9_48_14_70913
4187,19.0,9_48_14_70929
4188,20.0,9_48_14_70947
4189,21.0,9_48_14_70963
4190,22.0,9_48_14_70979
4191,23.0,9_48_14_70997
4192,24.0,9_48_14_71013
4193,25.0,9_48_14_71030
4194,26.0,9_48_14_71047
4195,27.0,9_48_14_71063
4196,28.0,9_48_14_71079
4197,29.0,9_48_14_71097
4198,30.0,9_48_14_71113
4199,31.0,9_48_14_71129
4200,32.0,9_48_14_71147
4201,33.0,9_48_14_71163
4202,34.0,9_48_14_71180
4203,35.0,9_48_14_71197
4204,36.0,9_48_14_71214
4205,37.0,9_48_14_71230
4206,38.0,9_48_14_71247
4207,39.0,9_48_14_71263
4208,40.0,9_48_14_71279
4209,41.0,9_48_14_71297
4210,42.0,9_48_14_71313
4211,43.0,9_48_14_71329
4212,44.0,9_48_14_71347
4213,45.0,9_48_14_71363
4214,46.0,9_48_14_71380
4215,47.0,9_48_14_71396
4216,48.0,9_48_14_71413
4217,49.0,9_48_14_71429
4218,50.0,9_48_14_71447
4219,51.0,9_48_14_71464
4220,52.0,9_48_14_71480
4221,53.0,9_48_14_71497
4222,54.0,9_48_14_71513
4223,55.0,9_48_14_71530
4224,56.0,9_48_14_71546
4225,57.0,9_48_14_71563
4226,58.0,9_48_14_71580
4227,59.0,9_48_14_71597
4228,60.0,9_48_14_71614
4229,61.0,9_48_14_71629
4230,62.0,9_48_14_71646
4231,63.0,9_48_14_71663
4232,64.0,9_48_14_71680
4233,65.0,9_48_14_71697
4234,66.0,9_48_14_71713
4235,67.0,9_48_14_71730
4236,68.0,9_48_14_71747
4237,69.0,9_48_14_71763
4238,70.0,9_48_15_71780
4239,71.0,9_48_15_71797
4240,72.0,9_48_15_71813
4241,73.0,9_48_15_71830
4242,74.0,9_48_15_71847
4243,75.0,9_48_15_71864
4244,76.0,9_48_15_71880
4245,77.0,9_48_15_71897
4246,78.0,9_48_15_71913
4247,79.0,9_48_15_71930
4248,80.0,9_48_15_71946
4249,81.0,9_48_15_71964
4250,82.0,9_48_15_71980
4251,83.0,9_48_15_71997
4252,84.0,9_48_15_72014
4253,85.0,9_48_15_72030
4254,86.0,9_48_15_72047
4255,87.0,9_48_15_72064
4256,88.0,9_48_15_72080
4257,89.0,9_48_15_72097
4258,90.0,9_48_15_72113
4259,91.0,9_48_15_72130
4260,92.0,9_48_15_72147
4261,93.0,9_48_15_72163
4262,94.0,9_48_15_72180
4263,95.0,9_48_15_72197
4264,96.0,9_48_15_72213
4265,97.0,9_48_15_72230
4266,98.0,9_48_15_72247
4267,99.0,9_48_15_72263
4268,100.0,9_48_15_72280
4269,101.0,9_48_15_72296
4270,102.0,9_48_15_72314
4271,103.0,9_48_15_72330
4272,104.0,9_48_15_72347
4273,105.0,9_48_15_72364
4274,106.0,9_48_15_72380
4275,107.0,9_48_15_72396
4276,108.0,9_48_15_72414
4277,109.0,9_48_15_72430
4278,110.0,9_48_15_72446
4279,111.0,9_48_15_72464
4280,112.0,9_48_15_72480
4281,113.0,9_48_15_72497
4282,114.0,9_48_15_72513
4283,115.0,9_48_15_72530
4284,116.0,9_48_15_72547
4285,117.0,9_48_15_72563
4286,118.0,9_48_15_72580
4287,119.0,9_48_15_72597
4288,120.0,9_48_15_72613
4289,121.0,9_48_15_72630
4290,122.0,9_48_15_72647
4291,123.0,9_48_15_72663
4292,124.0,9_48_15_72679
4293,125.0,9_48_15_72697
4294,126.0,9_48_15_72713
4295,127.0,9_48_15_72730
4296,128.0,9_48_15_72747
4297,129.0,9_48_15_72763
4298,130.0,9_48_16_72780
4299,131.0,9_48_16_72796
4300,132.0,9_48_16_72813
4301,133.0,9_48_16_72830
4302,134.0,9_48_16_72846
4303,135.0,9_48_16_72864
4304,136.0,9_48_16_72880
4305,137.0,9_48_16_72897
4306,138.0,9_48_16_72913
4307,139.0,9_48_16_72930
4308,140.0,9_48_16_72946
4309,141.0,9_48_16_72963
4310,142.0,9_48_16_72980
4311,143.0,9_48_16_72997
4312,144.0,9_48_16_73013
4313,145.0,9_48_16_73030
4314,146.0,9_48_16_73046
4315,147.0,9_48_16_73063
4316,148.0,9_48_16_73080
4317,149.0,9_48_16_73097
4318,150.0,9_48_16_73113
4319,151.0,9_48_16_73130
4320,152.0,9_48_16_73147
4321,153.0,9_48_16_73173
4322,154.0,9_48_16_73189
4323,155.0,9_48_16_73206
4324,156.0,9_48_16_73223
4325,157.0,9_48_16_73240
4326,158.0,9_48_16_73256
4327,159.0,9_48_16_73273
4328,160.0,9_48_16_73289
4329,161.0,9_48_16_73306
4330,162.0,9_48_16_73323
4331,163.0,9_48_16_73339
4332,164.0,9_48_16_73357
4333,165.0,9_48_16_73373
4334,166.0,9_48_16_73389
4335,167.0,9_48_16_73407
4336,168.0,9_48_16_73423
4337,169.0,9_48_16_73440
4338,170.0,9_48_16_73457
4339,171.0,9_48_16_73473
4340,172.0,9_48_16_73489
4341,173.0,9_48_16_73506
4342,174.0,9_48_16_73522
4343,175.0,9_48_16_73539
4344,176.0,9_48_16_73557
4345,177.0,9_48_16_73573
4346,178.0,9_48_16_73589
4347,179.0,9_48_16_73607
4348,180.0,9_48_16_73623
4349,181.0,9_48_16_73639
4350,182.0,9_48_16_73656
4351,183.0,9_48_16_73673
4352,184.0,9_48_16_73690
4353,185.0,9_48_16_73706
4354,186.0,9_48_16_73723
4355,187.0,9_48_16_73740
4356,188.0,9_48_16_73756
4357,189.0,9_48_16_73773
4358,190.0,9_48_17_73790
4359,191.0,9_48_17_73806
4360,192.0,9_48_17_73823
4361,193.0,9_48_17_73839
4362,194.0,9_48_17_73856
4363,195.0,9_48_17_73873
4364,196.0,9_48_17_73890
4365,197.0,9_48_17_73907
4366,198.0,9_48_17_73924
4367,199.0,9_48_17_73940
4368,200.0,9_48_17_73956
4369,201.0,9_48_17_73973
4370,202.0,9_48_17_73989
4371,203.0,9_48_17_74007
4372,204.0,9_48_17_74023
4373,205.0,9_48_17_74040
4374,206.0,9_48_17_74056
4375,207.0,9_48_17_74073
4376,208.0,9_48_17_74089
4377,209.0,9_48_17_74106
4378,210.0,9_48_17_74123
4379,211.0,9_48_17_74139
4380,212.0,9_48_17_74156
4381,213.0,9_48_17_74173
4382,214.0,9_48_17_74189
4383,215.0,9_48_17_74206
4384,216.0,9_48_17_74223
4385,217.0,9_48_17_74240
4386,218.0,9_48_17_74256
4387,219.0,9_48_17_74273
4388,220.0,9_48_17_74289
4389,221.0,9_48_17_74319
4390,222.0,9_48_17_74336
4391,223.0,9_48_17_74353
4392,224.0,9_48_17_74369
4393,225.0,9_48_17_74386
4394,226.0,9_48_17_74403
4395,227.0,9_48_17_74420
4396,228.0,9_48_17_74436
4397,229.0,9_48_17_74453
4398,230.0,9_48_17_74469
4399,231.0,9_48_17_74487
4400,232.0,9_48_17_74503
4401,233.0,9_48_17_74519
4402,234.0,9_48_17_74536
4403,235.0,9_48_17_74553
4404,236.0,9_48_17_74570
4405,237.0,9_48_17_74586
4406,238.0,9_48_17_74603
4407,239.0,9_48_17_74620
4408,240.0,9_48_17_74636
4409,241.0,9_48_17_74653
4410,242.0,9_48_17_74669
4411,243.0,9_48_17_74686
4412,244.0,9_48_17_74703
4413,245.0,9_48_17_74720
4414,246.0,9_48_17_74736
4415,247.0,9_48_17_74753
4416,248.0,9_48_17_74769
4417,249.0,9_48_18_74786
4418,250.0,9_48_18_74803
4419,251.0,9_48_18_74820
4420,252.0,9_48_18_74836
4421,253.0,9_48_18_74853
4422,254.0,9_48_18_74869
4423,255.0,9_48_18_74887
4424,256.0,9_48_18_74903
4425,257.0,9_48_18_74920
4426,258.0,9_48_18_74936
4427,259.0,9_48_18_74953
4428,260.0,9_48_18_74969
4429,261.0,9_48_18_74986
4430,262.0,9_48_18_75003
4431,263.0,9_48_18_75019
4432,264.0,9_48_18_75036
4433,265.0,9_48_18_75053
4434,266.0,9_48_18_75069
4435,267.0,9_48_18_75086
4436,268.0,9_48_18_75103
4437,269.0,9_48_18_75120
4438,270.0,9_48_18_75136
4439,271.0,9_48_18_75153
4440,272.0,9_48_18_75169
4441,273.0,9_48_18_75186
4442,274.0,9_48_18_75203
4443,275.0,9_48_18_75219
4444,276.0,9_48_18_75236
4445,277.0,9_48_18_75253
4446,278.0,9_48_18_75270
4447,279.0,9_48_18_75286
4448,280.0,9_48_18_75303
4449,281.0,9_48_18_75320
4450,282.0,9_48_18_75336
4451,283.0,9_48_18_75353
4452,284.0,9_48_18_75370
4453,285.0,9_48_18_75386
4454,286.0,9_48_18_75403
4455,287.0,9_48_18_75419
4456,288.0,9_48_18_75436
4457,289.0,9_48_18_75453
4458,290.0,9_48_18_75469
4459,291.0,9_48_18_75486
4460,292.0,9_48_18_75503
4461,293.0,9_48_18_75519
4462,294.0,9_48_18_75536
4463,295.0,9_48_18_75553
4464,296.0,9_48_18_75569
4465,297.0,9_48_18_75586
4466,298.0,9_48_18_75603
4467,299.0,9_48_18_75619
4468,300.0,9_48_18_75637
4469,301.0,9_48_18_75653
4470,302.0,9_48_18_75669
4471,303.0,9_48_18_75687
4472,304.0,9_48_18_75703
4473,305.0,9_48_18_75719
4474,306.0,9_48_18_75736
4475,307.0,9_48_18_75753
4476,308.0,9_48_18_75769
4477,309.0,9_48_19_75787
4478,310.0,9_48_19_75803
4479,311.0,9_48_19_75820
4480,312.0,9_48_19_75837
4481,313.0,9_48_19_75853
4482,314.0,9_48_19_75870
4483,315.0,9_48_19_75886
4484,316.0,9_48_19_75903
4485,317.0,9_48_19_75920
4486,318.0,9_48_19_75936
4487,319.0,9_48_19_75953
4488,320.0,9_48_19_75970
4489,321.0,9_48_19_75987
4490,322.0,9_48_19_76003
4491,323.0,9_48_19_76019
4492,324.0,9_48_19_76036
4493,325.0,9_48_19_76053
4494,326.0,9_48_19_76069
4495,327.0,9_48_19_76086
4496,328.0,9_48_19_76103
4497,329.0,9_48_19_76120
4498,330.0,9_48_19_76137
4499,331.0,9_48_19_76153
4500,332.0,9_48_19_76170
4501,333.0,9_48_19_76186
4502,334.0,9_48_19_76203
4503,335.0,9_48_19_76219
4504,336.0,9_48_19_76238
4505,337.0,9_48_19_76253
4506,338.0,9_48_19_76270
4507,339.0,9_48_19_76287
4508,340.0,9_48_19_76303
4509,341.0,9_48_19_76320
4510,342.0,9_48_19_76337
4511,343.0,9_48_19_76353
4512,344.0,9_48_19_76370
4513,345.0,9_48_19_76387
4514,346.0,9_48_19_76403
4515,347.0,9_48_19_76419
4516,348.0,9_48_19_76436
4517,349.0,9_48_19_76453
4518,350.0,9_48_19_76469
4519,351.0,9_48_19_76487
4520,352.0,9_48_19_76503
4521,353.0,9_48_19_76519
4522,354.0,9_48_19_76536
4523,355.0,9_48_19_76553
4524,356.0,9_48_19_76569
4525,357.0,9_48_19_76586
4526,358.0,9_48_19_76603
4527,359.0,9_48_19_76620
4528,360.0,9_48_19_76636
4529,361.0,9_48_19_76653
4530,362.0,9_48_19_76670
4531,363.0,9_48_19_76686
4532,364.0,9_48_19_76703
4533,365.0,9_48_19_76720
4534,366.0,9_48_19_76737
4535,367.0,9_48_19_76753
4536,368.0,9_48_19_76770
4537,369.0,9_48_20_76786
4538,370.0,9_48_20_76803
4539,371.0,9_48_20_76819
4540,372.0,9_48_20_76836
4541,373.0,9_48_20_76853
4542,374.0,9_48_20_76869
4543,375.0,9_48_20_76887
4544,376.0,9_48_20_76903
4545,377.0,9_48_20_76920
4546,378.0,9_48_20_76936
4547,379.0,9_48_20_76953
4548,380.0,9_48_20_76970
4549,381.0,9_48_20_76987
4550,382.0,9_48_20_77003
4551,383.0,9_48_20_77020
4552,384.0,9_48_20_77036
4553,385.0,9_48_20_77053
4554,386.0,9_48_20_77069
4555,387.0,9_48_20_77086
4556,388.0,9_48_20_77103
4557,389.0,9_48_20_77120
4558,390.0,9_48_20_77136
4559,391.0,9_48_20_77153
4560,392.0,9_48_20_77170
4561,393.0,9_48_20_77187
4562,394.0,9_48_20_77203
4563,395.0,9_48_20_77219
4564,396.0,9_48_20_77236
4565,397.0,9_48_20_77253
4566,398.0,9_48_20_77269
4567,399.0,9_48_20_77287
4568,400.0,9_48_20_77303
4569,401.0,9_48_20_77319
4570,402.0,9_48_20_77336
4571,403.0,9_48_20_77353
4572,404.0,9_48_20_77370
4573,405.0,9_48_20_77387
4574,406.0,9_48_20_77403
4575,407.0,9_48_20_77420
4576,408.0,9_48_20_77436
4577,409.0,9_48_20_77453
4578,410.0,9_48_20_77470
4579,411.0,9_48_20_77487
4580,412.0,9_48_20_77503
4581,413.0,9_48_20_77520
4582,414.0,9_48_20_77537
4583,415.0,9_48_20_77553
4584,416.0,9_48_20_77570
4585,417.0,9_48_20_77586
4586,418.0,9_48_20_77603
4587,419.0,9_48_20_77619
4588,420.0,9_48_20_77636
4589,421.0,9_48_20_77653
4590,422.0,9_48_20_77670
4591,423.0,9_48_20_77687
4592,424.0,9_48_20_77703
4593,425.0,9_48_20_77720
4594,426.0,9_48_20_77736
4595,427.0,9_48_20_77753
4596,428.0,9_48_20_77770
4597,429.0,9_48_21_77787
4598,430.0,9_48_21_77803
4599,431.0,9_48_21_77820
4600,432.0,9_48_21_77837
4601,433.0,9_48_21_77853
4602,434.0,9_48_21_77870
4603,435.0,9_48_21_77887
4604,436.0,9_48_21_77903
4605,437.0,9_48_21_77919
4606,438.0,9_48_21_77936
4607,439.0,9_48_21_77953
4608,440.0,9_48_21_77970
4609,441.0,9_48_21_77987
4610,442.0,9_48_21_78003
4611,443.0,9_48_21_78020
4612,444.0,9_48_21_78037
4613,445.0,9_48_21_78053
4614,446.0,9_48_21_78070
4615,447.0,9_48_21_78087
4616,448.0,9_48_21_78103
4617,449.0,9_48_21_78120
4618,450.0,9_48_21_78136
4619,451.0,9_48_21_78153
4620,452.0,9_48_21_78169
4621,453.0,9_48_21_78186
4622,454.0,9_48_21_78203
4623,455.0,9_48_21_78219
4624,456.0,9_48_21_78236
4625,457.0,9_48_21_78253
4626,458.0,9_48_21_78269
4627,459.0,9_48_21_78286
4628,460.0,9_48_21_78303
4629,461.0,9_48_21_78320
4630,462.0,9_48_21_78336
4631,463.0,9_48_21_78353
4632,464.0,9_48_21_78370
4633,465.0,9_48_21_78387
4634,466.0,9_48_21_78403
4635,467.0,9_48_21_78420
4636,468.0,9_48_21_78437
4637,469.0,9_48_21_78453
4638,470.0,9_48_21_78470
4639,471.0,9_48_21_78486
4640,472.0,9_48_21_78503
4641,473.0,9_48_21_78520
4642,474.0,9_48_21_78537
4643,475.0,9_48_21_78553
4644,476.0,9_48_21_78569
4645,477.0,9_48_21_78586
4646,478.0,9_48_21_78603
4647,479.0,9_48_21_78620
4648,480.0,9_48_21_78636
4649,481.0,9_48_21_78653
4650,482.0,9_48_21_78670
4651,483.0,9_48_21_78687
4652,484.0,9_48_21_78704
4653,485.0,9_48_21_78719
4654,486.0,9_48_21_78736
4655,487.0,9_48_21_78753
4656,488.0,9_48_21_78770
4657,489.0,9_48_22_78787
4658,490.0,9_48_22_78803
4659,491.0,9_48_22_78820
4660,492.0,9_48_22_78837
4661,493.0,9_48_22_78853
4662,494.0,9_48_22_78870
4663,495.0,9_48_22_78887
4664,496.0,9_48_22_78903
4665,497.0,9_48_22_78920
4666,498.0,9_48_22_78937
4667,499.0,9_48_22_78953
4668,500.0,9_48_22_78970
4669,501.0,9_48_22_78987
4670,502.0,9_48_22_79003
4671,503.0,9_48_22_79020
4672,504.0,9_48_22_79036
4673,505.0,9_48_22_79053
4674,506.0,9_48_22_79070
4675,507.0,9_48_22_79087
4676,508.0,9_48_22_79103
4677,509.0,9_48_22_79120
4678,510.0,9_48_22_79136
4679,511.0,9_48_22_79153
4680,512.0,9_48_22_79169
4681,513.0,9_48_22_79186
4682,514.0,9_48_22_79203
4683,515.0,9_48_22_79220
4684,516.0,9_48_22_79236
4685,517.0,9_48_22_79253
4686,518.0,9_48_22_79270
4687,519.0,9_48_22_79286
4688,520.0,9_48_22_79318
4689,521.0,9_48_22_79334
4690,522.0,9_48_22_79351
4691,523.0,9_48_22_79368
4692,524.0,9_48_22_79384
4693,525.0,9_48_22_79401
4694,526.0,9_48_22_79417
4695,527.0,9_48_22_79434
4696,528.0,9_48_22_79451
4697,529.0,9_48_22_79468
4698,530.0,9_48_22_79484
4699,531.0,9_48_22_79501
4700,532.0,9_48_22_79518
4701,533.0,9_48_22_79535
4702,534.0,9_48_22_79551
4703,535.0,9_48_22_79568
4704,536.0,9_48_22_79585
4705,537.0,9_48_22_79601
4706,538.0,9_48_22_79618
4707,539.0,9_48_22_79635
4708,540.0,9_48_22_79651
4709,541.0,9_48_22_79668
4710,542.0,9_48_22_79685
4711,543.0,9_48_22_79701
4712,544.0,9_48_22_79717
4713,545.0,9_48_22_79734
4714,546.0,9_48_22_79752
4715,547.0,9_48_22_79768
4716,548.0,9_48_23_79784
4717,549.0,9_48_23_79801
4718,550.0,9_48_23_79818
4719,551.0,9_48_23_79834
4720,552.0,9_48_23_79851
4721,553.0,9_48_23_79867
4722,554.0,9_48_23_79884
4723,555.0,9_48_23_79901
4724,556.0,9_48_23_79917
4725,557.0,9_48_23_79934
4726,558.0,9_48_23_79951
4727,559.0,9_48_23_79968
4728,560.0,9_48_23_79985
4729,561.0,9_48_23_80001
4730,562.0,9_48_23_80018
4731,563.0,9_48_23_80034
4732,564.0,9_48_23_80051
4733,565.0,9_48_23_80068
4734,566.0,9_48_23_80084
4735,567.0,9_48_23_80101
4736,568.0,9_48_23_80118
4737,569.0,9_48_23_80134
4738,570.0,9_48_23_80151
4739,571.0,9_48_23_80168
4740,572.0,9_48_23_80185
4741,573.0,9_48_23_80201
4742,574.0,9_48_23_80217
4743,575.0,9_48_23_80234
4744,576.0,9_48_23_80251
4745,577.0,9_48_23_80268
4746,578.0,9_48_23_80284
4747,579.0,9_48_23_80301
4748,580.0,9_48_23_80318
4749,581.0,9_48_23_80334
4750,582.0,9_48_23_80352
4751,583.0,9_48_23_80368
4752,584.0,9_48_23_80384
4753,585.0,9_48_23_80401
4754,586.0,9_48_23_80418
4755,587.0,9_48_23_80435
4756,588.0,9_48_23_80452
4757,589.0,9_48_23_80468
4758,590.0,9_48_23_80484
4759,591.0,9_48_23_80501
4760,592.0,9_48_23_80518
4761,593.0,9_48_23_80534
4762,594.0,9_48_23_80552
4763,595.0,9_48_23_80568
4764,596.0,9_48_23_80585
4765,597.0,9_48_23_80601
4766,598.0,9_48_23_80618
4767,599.0,9_48_23_80635
4768,600.0,9_48_23_80651
4769,601.0,9_48_23_80668
4770,602.0,9_48_23_80684
4771,603.0,9_48_23_80701
4772,604.0,9_48_23_80718
4773,605.0,9_48_23_80735
4774,606.0,9_48_23_80752
4775,607.0,9_48_23_80768
4776,608.0,9_48_24_80785
4777,609.0,9_48_24_80801
4778,610.0,9_48_24_80818
4779,611.0,9_48_24_80834
4780,612.0,9_48_24_80851
4781,613.0,9_48_24_80867
4782,614.0,9_48_24_80884
4783,615.0,9_48_24_80901
4784,616.0,9_48_24_80918
4785,617.0,9_48_24_80935
4786,618.0,9_48_24_80951
4787,619.0,9_48_24_80968
4788,620.0,9_48_24_80985
4789,621.0,9_48_24_81002
4790,622.0,9_48_24_81018
4791,623.0,9_48_24_81034
4792,624.0,9_48_24_81051
4793,625.0,9_48_24_81067
4794,626.0,9_48_24_81084
4795,627.0,9_48_24_81102
4796,628.0,9_48_24_81118
4797,629.0,9_48_24_81134
4798,630.0,9_48_24_81151
4799,631.0,9_48_24_81168
4800,632.0,9_48_24_81185
4801,633.0,9_48_24_81201
4802,634.0,9_48_24_81218
4803,635.0,9_48_24_81235
4804,636.0,9_48_24_81251
4805,637.0,9_48_24_81268
4806,638.0,9_48_24_81284
4807,639.0,9_48_24_81301
4808,640.0,9_48_24_81318
4809,641.0,9_48_24_81335
4810,642.0,9_48_24_81351
4811,643.0,9_48_24_81367
4812,644.0,9_48_24_81385
4813,645.0,9_48_24_81402
4814,646.0,9_48_24_81418
4815,647.0,9_48_24_81435
4816,648.0,9_48_24_81451
4817,649.0,9_48_24_81468
4818,650.0,9_48_24_81484
4819,651.0,9_48_24_81501
4820,652.0,9_48_24_81517
4821,653.0,9_48_24_81535
4822,654.0,9_48_24_81551
4823,655.0,9_48_24_81568
4824,656.0,9_48_24_81585
4825,657.0,9_48_24_81601
4826,658.0,9_48_24_81618
4827,659.0,9_48_24_81634
4828,660.0,9_48_24_81651
4829,661.0,9_48_24_81667
4830,662.0,9_48_24_81685
4831,663.0,9_48_24_81701
4832,664.0,9_48_24_81717
4833,665.0,9_48_24_81735
4834,666.0,9_48_24_81751
4835,667.0,9_48_24_81768
4836,668.0,9_48_25_81784
4837,669.0,9_48_25_81801
4838,670.0,9_48_25_81818
4839,671.0,9_48_25_81835
4840,672.0,9_48_25_81851
4841,673.0,9_48_25_81868
4842,674.0,9_48_25_81885
4843,675.0,9_48_25_81901
4844,676.0,9_48_25_81917
4845,677.0,9_48_25_81935
4846,678.0,9_48_25_81952
4847,679.0,9_48_25_81967
4848,680.0,9_48_25_81984
4849,681.0,9_48_25_82001
4850,682.0,9_48_25_82018
4851,683.0,9_48_25_82034
4852,684.0,9_48_25_82051
4853,685.0,9_48_25_82068
4854,686.0,9_48_25_82085
4855,687.0,9_48_25_82102
4856,688.0,9_48_25_82118
4857,689.0,9_48_25_82135
4858,690.0,9_48_25_82151
4859,691.0,9_48_25_82168
4860,692.0,9_48_25_82185
4861,693.0,9_48_25_82202
4862,694.0,9_48_25_82218
4863,695.0,9_48_25_82235
4864,696.0,9_48_25_82251
4865,697.0,9_48_25_82268
4866,698.0,9_48_25_82285
4867,699.0,9_48_25_82301
4868,700.0,9_48_25_82318
4869,701.0,9_48_25_82335
4870,702.0,9_48_25_82351
4871,703.0,9_48_25_82368
4872,704.0,9_48_25_82385
4873,705.0,9_48_25_82401
4874,706.0,9_48_25_82418
4875,707.0,9_48_25_82434
4876,708.0,9_48_25_82451
4877,709.0,9_48_25_82468
4878,710.0,9_48_25_82484
4879,711.0,9_48_25_82501
4880,712.0,9_48_25_82518
4881,713.0,9_48_25_82535
4882,714.0,9_48_25_82551
4883,715.0,9_48_25_82568
4884,716.0,9_48_25_82585
4885,717.0,9_48_25_82601
4886,718.0,9_48_25_82618
4887,719.0,9_48_25_82634
4888,720.0,9_48_25_82652
4889,721.0,9_48_25_82668
4890,722.0,9_48_25_82685
4891,723.0,9_48_25_82701
4892,724.0,9_48_25_82718
4893,725.0,9_48_25_82735
4894,726.0,9_48_25_82752
4895,727.0,9_48_25_82768
4896,728.0,9_48_26_82785
4897,729.0,9_48_26_82801
4898,730.0,9_48_26_82818
4899,731.0,9_48_26_82834
4900,732.0,9_48_26_82851
4901,733.0,9_48_26_82868
4902,734.0,9_48_26_82884
4903,735.0,9_48_26_82901
4904,736.0,9_48_26_82917
4905,737.0,9_48_26_82934
4906,738.0,9_48_26_82951
4907,739.0,9_48_26_82968
4908,740.0,9_48_26_82985
4909,741.0,9_48_26_83001
4910,742.0,9_48_26_83018
4911,743.0,9_48_26_83035
4912,744.0,9_48_26_83051
4913,745.0,9_48_26_83068
4914,746.0,9_48_26_83085
4915,747.0,9_48_26_83102
4916,748.0,9_48_26_83117
4917,749.0,9_48_26_83134
4918,750.0,9_48_26_83151
4919,751.0,9_48_26_83168
4920,752.0,9_48_26_83184
4921,753.0,9_48_26_83201
