position,GSR_Reading,Time_Stamp
0,485.0,8_55_11_608
1,495.0,8_55_11_625
2,495.0,8_55_11_642
3,496.0,8_55_11_659
4,494.0,8_55_12_675
5,492.0,8_55_12_692
6,490.0,8_55_12_709
7,487.0,8_55_12_725
8,1.0,8_55_12_741
9,495.0,8_55_12_759
10,495.0,8_55_12_775
11,495.0,8_55_12_792
12,495.0,8_55_12_808
13,495.0,8_55_12_825
14,495.0,8_55_12_841
15,495.0,8_55_12_859
16,495.0,8_55_12_875
17,495.0,8_55_12_891
18,495.0,8_55_12_909
19,496.0,8_55_12_925
20,494.0,8_55_12_941
21,492.0,8_55_12_958
22,490.0,8_55_12_975
23,487.0,8_55_12_992
24,455.0,8_55_13_1908
25,479.0,8_55_13_1942
26,488.0,8_55_13_1992
27,492.0,8_55_13_2025
28,493.0,8_55_13_2075
29,494.0,8_55_13_2108
30,494.0,8_55_13_2142
31,494.0,8_55_13_2192
32,494.0,8_55_13_2225
33,495.0,8_55_13_2274
34,495.0,8_55_13_2308
35,495.0,8_55_13_2358
36,494.0,8_55_13_2391
37,494.0,8_55_13_2425
38,495.0,8_55_13_2475
39,495.0,8_55_13_2508
40,495.0,8_55_13_2559
41,495.0,8_55_13_2591
42,495.0,8_55_13_2625
43,495.0,8_55_14_2675
44,496.0,8_55_14_2708
45,494.0,8_55_14_2758
46,492.0,8_55_14_2791
47,490.0,8_55_14_2841
48,487.0,8_55_14_2875
49,485.0,8_55_14_2909
50,483.0,8_55_14_2958
51,481.0,8_55_14_2992
52,479.0,8_55_14_3041
53,488.0,8_55_14_3075
54,492.0,8_55_14_3125
55,493.0,8_55_14_3159
56,494.0,8_55_14_3208
57,494.0,8_55_14_3241
58,494.0,8_55_14_3275
59,494.0,8_55_14_3325
60,494.0,8_55_14_3358
61,494.0,8_55_14_3408
62,494.0,8_55_14_3442
63,494.0,8_55_14_3492
64,494.0,8_55_14_3524
65,494.0,8_55_14_3575
66,494.0,8_55_14_3608
67,494.0,8_55_14_3642
68,494.0,8_55_15_3691
69,494.0,8_55_15_3724
70,495.0,8_55_15_3775
71,494.0,8_55_15_3808
72,494.0,8_55_15_3858
73,495.0,8_55_15_3891
74,495.0,8_55_15_3925
75,494.0,8_55_15_3975
76,494.0,8_55_15_4009
77,494.0,8_55_15_4059
78,495.0,8_55_15_4091
79,495.0,8_55_15_4141
80,495.0,8_55_15_4175
81,495.0,8_55_15_4209
82,495.0,8_55_15_4259
83,495.0,8_55_15_4292
84,496.0,8_55_15_4342
85,494.0,8_55_15_4375
86,492.0,8_55_15_4425
87,489.0,8_55_15_4458
88,487.0,8_55_15_4492
89,485.0,8_55_15_4542
90,483.0,8_55_15_4575
91,481.0,8_55_15_4624
92,478.0,8_55_15_4659
93,489.0,8_55_16_4708
94,492.0,8_55_16_4741
95,493.0,8_55_16_4792
96,494.0,8_55_16_4825
97,494.0,8_55_16_4858
98,494.0,8_55_16_4908
99,494.0,8_55_16_4942
100,494.0,8_55_16_4991
101,494.0,8_55_16_5025
102,494.0,8_55_16_5075
103,494.0,8_55_16_5108
104,494.0,8_55_16_5141
105,494.0,8_55_16_5192
106,494.0,8_55_16_5225
107,494.0,8_55_16_5275
108,494.0,8_55_16_5308
109,494.0,8_55_16_5342
110,495.0,8_55_16_5391
111,494.0,8_55_16_5425
112,495.0,8_55_16_5475
113,495.0,8_55_16_5508
114,495.0,8_55_16_5558
115,495.0,8_55_16_5592
116,495.0,8_55_16_5642
117,495.0,8_55_17_5675
118,495.0,8_55_17_5725
119,495.0,8_55_17_5758
120,495.0,8_55_17_5792
121,495.0,8_55_17_5842
122,495.0,8_55_17_5875
123,495.0,8_55_17_5925
124,495.0,8_55_17_5959
125,494.0,8_55_17_6008
126,492.0,8_55_17_6041
127,490.0,8_55_17_6075
128,487.0,8_55_17_6125
129,485.0,8_55_17_6159
130,483.0,8_55_17_6208
131,481.0,8_55_17_6241
132,479.0,8_55_17_6292
133,476.0,8_55_17_6325
134,474.0,8_55_17_6358
135,486.0,8_55_17_6408
136,491.0,8_55_17_6441
137,493.0,8_55_17_6492
138,494.0,8_55_17_6525
139,495.0,8_55_17_6558
140,494.0,8_55_17_6609
141,494.0,8_55_17_6642
142,494.0,8_55_18_6692
143,494.0,8_55_18_6725
144,494.0,8_55_18_6775
145,494.0,8_55_18_6808
146,494.0,8_55_18_6859
147,494.0,8_55_18_6891
148,495.0,8_55_18_6925
149,494.0,8_55_18_6975
150,494.0,8_55_18_7009
151,494.0,8_55_18_7059
152,495.0,8_55_18_7092
153,495.0,8_55_18_7142
154,494.0,8_55_18_7175
155,494.0,8_55_18_7225
156,494.0,8_55_18_7260
157,495.0,8_55_18_7292
158,495.0,8_55_18_7341
159,495.0,8_55_18_7376
160,485.0,8_55_18_7425
161,492.0,8_55_18_7458
162,496.0,8_55_18_7509
163,496.0,8_55_18_7542
164,496.0,8_55_18_7575
165,495.0,8_55_18_7625
166,495.0,8_55_18_7658
167,493.0,8_55_19_7709
168,491.0,8_55_19_7742
169,489.0,8_55_19_7775
170,487.0,8_55_19_7825
171,485.0,8_55_19_7859
172,483.0,8_55_19_7908
173,481.0,8_55_19_7942
174,479.0,8_55_19_7992
175,488.0,8_55_19_8025
176,492.0,8_55_19_8058
177,494.0,8_55_19_8109
178,494.0,8_55_19_8141
179,494.0,8_55_19_8191
180,494.0,8_55_19_8225
181,493.0,8_55_19_8275
182,493.0,8_55_19_8308
183,493.0,8_55_19_8358
184,512.0,8_55_19_8391
185,502.0,8_55_19_8425
186,475.0,8_55_19_8475
187,481.0,8_55_19_8509
188,485.0,8_55_19_8559
189,488.0,8_55_19_8591
190,490.0,8_55_19_8642
191,491.0,8_55_20_8675
192,492.0,8_55_20_8725
193,493.0,8_55_20_8759
194,492.0,8_55_20_8792
195,492.0,8_55_20_8841
196,491.0,8_55_20_8875
197,490.0,8_55_20_8925
198,489.0,8_55_20_8958
199,489.0,8_55_20_8992
200,488.0,8_55_20_9042
201,489.0,8_55_20_9075
202,489.0,8_55_20_9125
203,490.0,8_55_20_9159
204,491.0,8_55_20_9208
205,491.0,8_55_20_9242
206,490.0,8_55_20_9275
207,488.0,8_55_20_9326
208,486.0,8_55_20_9359
209,483.0,8_55_20_9408
210,481.0,8_55_20_9442
211,479.0,8_55_20_9492
212,476.0,8_55_20_9525
213,417.0,8_55_20_9575
214,371.0,8_55_20_9609
215,340.0,8_55_20_9658
216,323.0,8_55_21_9692
217,312.0,8_55_21_9725
218,302.0,8_55_21_9775
219,295.0,8_55_21_9808
220,295.0,8_55_21_9858
221,301.0,8_55_21_9892
222,326.0,8_55_21_9943
223,364.0,8_55_21_9975
224,398.0,8_55_21_10008
225,424.0,8_55_21_10059
226,442.0,8_55_21_10091
227,454.0,8_55_21_10142
228,461.0,8_55_21_10175
229,466.0,8_55_21_10208
230,470.0,8_55_21_10258
231,473.0,8_55_21_10292
232,475.0,8_55_21_10342
233,476.0,8_55_21_10375
234,477.0,8_55_21_10425
235,477.0,8_55_21_10459
236,478.0,8_55_21_10508
237,477.0,8_55_21_10541
238,477.0,8_55_21_10591
239,465.0,8_55_21_10625
240,450.0,8_55_21_10658
241,431.0,8_55_22_10708
242,403.0,8_55_22_10742
243,371.0,8_55_22_10791
244,363.0,8_55_22_10826
245,362.0,8_55_22_10859
246,362.0,8_55_22_10908
247,361.0,8_55_22_10942
248,361.0,8_55_22_10992
249,360.0,8_55_22_11025
250,359.0,8_55_22_11075
251,358.0,8_55_22_11108
252,357.0,8_55_22_11141
253,376.0,8_55_22_11192
254,375.0,8_55_22_11225
255,374.0,8_55_22_11275
256,404.0,8_55_22_11308
257,396.0,8_55_22_11359
258,374.0,8_55_22_11392
259,351.0,8_55_22_11425
260,326.0,8_55_22_11475
261,299.0,8_55_22_11509
262,276.0,8_55_22_11558
263,259.0,8_55_22_11591
264,244.0,8_55_22_11642
265,229.0,8_55_23_11675
266,216.0,8_55_23_11709
267,206.0,8_55_23_11759
268,200.0,8_55_23_11792
269,197.0,8_55_23_11841
270,203.0,8_55_23_11875
271,221.0,8_55_23_11925
272,242.0,8_55_23_11958
273,242.0,8_55_23_12008
274,228.0,8_55_23_12041
275,213.0,8_55_23_12091
276,200.0,8_55_23_12125
277,191.0,8_55_23_12158
278,186.0,8_55_23_12208
279,184.0,8_55_23_12242
280,182.0,8_55_23_12292
281,179.0,8_55_23_12325
282,177.0,8_55_23_12359
283,174.0,8_55_23_12409
284,172.0,8_55_23_12442
285,172.0,8_55_23_12492
286,179.0,8_55_23_12525
287,186.0,8_55_23_12559
288,191.0,8_55_23_12608
289,196.0,8_55_23_12643
290,202.0,8_55_24_12692
291,207.0,8_55_24_12725
292,211.0,8_55_24_12775
293,215.0,8_55_24_12809
294,219.0,8_55_24_12842
295,223.0,8_55_24_12892
296,182.0,8_55_24_12925
297,168.0,8_55_24_12976
298,163.0,8_55_24_13008
299,161.0,8_55_24_13058
300,160.0,8_55_24_13092
301,160.0,8_55_24_13142
302,160.0,8_55_24_13175
303,163.0,8_55_24_13225
304,164.0,8_55_24_13259
305,164.0,8_55_24_13291
306,164.0,8_55_24_13341
307,164.0,8_55_24_13375
308,164.0,8_55_24_13425
309,165.0,8_55_24_13459
310,165.0,8_55_24_13509
311,165.0,8_55_24_13542
312,165.0,8_55_24_13575
313,165.0,8_55_24_13625
314,164.0,8_55_24_13658
315,164.0,8_55_25_13708
316,164.0,8_55_25_13742
317,163.0,8_55_25_13775
318,163.0,8_55_25_13825
319,162.0,8_55_25_13859
320,162.0,8_55_25_13909
321,162.0,8_55_25_13942
322,162.0,8_55_25_13992
323,162.0,8_55_25_14025
324,162.0,8_55_25_14075
325,161.0,8_55_25_14109
326,162.0,8_55_25_14142
327,170.0,8_55_25_14192
328,177.0,8_55_25_14225
329,183.0,8_55_25_14276
330,189.0,8_55_25_14309
331,194.0,8_55_25_14358
332,200.0,8_55_25_14392
333,205.0,8_55_25_14425
334,209.0,8_55_25_14476
335,213.0,8_55_25_14509
336,180.0,8_55_25_14559
337,169.0,8_55_25_14592
338,165.0,8_55_25_14642
339,164.0,8_55_26_14675
340,164.0,8_55_26_14725
341,163.0,8_55_26_14759
342,163.0,8_55_26_14792
343,163.0,8_55_26_14842
344,162.0,8_55_26_14875
345,162.0,8_55_26_14925
346,162.0,8_55_26_14958
347,162.0,8_55_26_14992
348,162.0,8_55_26_15042
349,162.0,8_55_26_15075
350,161.0,8_55_26_15125
351,161.0,8_55_26_15159
352,161.0,8_55_26_15209
353,161.0,8_55_26_15242
354,161.0,8_55_26_15292
355,160.0,8_55_26_15325
356,161.0,8_55_26_15358
357,160.0,8_55_26_15409
358,160.0,8_55_26_15442
359,160.0,8_55_26_15492
360,159.0,8_55_26_15525
361,159.0,8_55_26_15576
362,159.0,8_55_26_15608
363,159.0,8_55_26_15659
364,159.0,8_55_27_15692
365,159.0,8_55_27_15725
366,168.0,8_55_27_15776
367,175.0,8_55_27_15809
368,182.0,8_55_27_15858
369,188.0,8_55_27_15893
370,193.0,8_55_27_15943
371,198.0,8_55_27_15975
372,203.0,8_55_27_16009
373,208.0,8_55_27_16059
374,212.0,8_55_27_16092
375,216.0,8_55_27_16142
376,220.0,8_55_27_16175
377,178.0,8_55_27_16209
378,164.0,8_55_27_16259
379,160.0,8_55_27_16292
380,158.0,8_55_27_16342
381,157.0,8_55_27_16375
382,157.0,8_55_27_16409
383,156.0,8_55_27_16458
384,157.0,8_55_27_16492
385,156.0,8_55_27_16542
386,156.0,8_55_27_16575
387,156.0,8_55_27_16626
388,156.0,8_55_27_16659
389,156.0,8_55_28_16709
390,156.0,8_55_28_16742
391,156.0,8_55_28_16792
392,156.0,8_55_28_16825
393,156.0,8_55_28_16858
394,156.0,8_55_28_16908
395,156.0,8_55_28_16942
396,156.0,8_55_28_16992
397,156.0,8_55_28_17025
398,156.0,8_55_28_17075
399,156.0,8_55_28_17108
400,156.0,8_55_28_17159
401,156.0,8_55_28_17192
402,156.0,8_55_28_17226
403,156.0,8_55_28_17275
404,156.0,8_55_28_17309
405,156.0,8_55_28_17359
406,156.0,8_55_28_17392
407,165.0,8_55_28_17425
408,173.0,8_55_28_17476
409,179.0,8_55_28_17509
410,186.0,8_55_28_17559
411,191.0,8_55_28_17592
412,196.0,8_55_28_17626
413,202.0,8_55_29_17676
414,206.0,8_55_29_17708
415,211.0,8_55_29_17758
416,215.0,8_55_29_17792
417,175.0,8_55_29_17842
418,162.0,8_55_29_17875
419,157.0,8_55_29_17925
420,155.0,8_55_29_17959
421,155.0,8_55_29_17992
422,154.0,8_55_29_18042
423,154.0,8_55_29_18075
424,153.0,8_55_29_18126
425,153.0,8_55_29_18159
426,153.0,8_55_29_18209
427,153.0,8_55_29_18242
428,153.0,8_55_29_18292
429,152.0,8_55_29_18326
430,153.0,8_55_29_18359
431,152.0,8_55_29_18409
432,152.0,8_55_29_18442
433,152.0,8_55_29_18493
434,151.0,8_55_29_18525
435,152.0,8_55_29_18576
436,152.0,8_55_29_18609
437,152.0,8_55_29_18642
438,152.0,8_55_30_18692
439,151.0,8_55_30_18726
440,151.0,8_55_30_18775
441,151.0,8_55_30_18809
442,151.0,8_55_30_18858
443,151.0,8_55_30_18892
444,151.0,8_55_30_18925
445,151.0,8_55_30_18976
446,151.0,8_55_30_19009
447,161.0,8_55_30_19059
448,168.0,8_55_30_19093
449,176.0,8_55_30_19142
450,182.0,8_55_30_19176
451,188.0,8_55_30_19209
452,194.0,8_55_30_19259
453,199.0,8_55_30_19292
454,204.0,8_55_30_19342
455,208.0,8_55_30_19375
456,212.0,8_55_30_19426
457,171.0,8_55_30_19459
458,158.0,8_55_30_19508
459,153.0,8_55_30_19543
460,152.0,8_55_30_19575
461,151.0,8_55_30_19626
462,151.0,8_55_30_19659
463,151.0,8_55_31_19709
464,151.0,8_55_31_19742
465,151.0,8_55_31_19792
466,151.0,8_55_31_19826
467,150.0,8_55_31_19859
468,150.0,8_55_31_19910
469,150.0,8_55_31_19942
470,150.0,8_55_31_19992
471,150.0,8_55_31_20025
472,150.0,8_55_31_20059
473,151.0,8_55_31_20109
474,150.0,8_55_31_20142
475,150.0,8_55_31_20192
476,150.0,8_55_31_20225
477,150.0,8_55_31_20275
478,150.0,8_55_31_20309
479,151.0,8_55_31_20359
480,151.0,8_55_31_20392
481,151.0,8_55_31_20442
482,151.0,8_55_31_20476
483,150.0,8_55_31_20508
484,151.0,8_55_31_20558
485,151.0,8_55_31_20592
486,151.0,8_55_31_20643
487,161.0,8_55_32_20676
488,168.0,8_55_32_20726
489,175.0,8_55_32_20759
490,182.0,8_55_32_20792
491,188.0,8_55_32_20842
492,193.0,8_55_32_20876
493,198.0,8_55_32_20925
494,203.0,8_55_32_20959
495,208.0,8_55_32_20992
496,212.0,8_55_32_21042
497,172.0,8_55_32_21076
498,158.0,8_55_32_21126
499,153.0,8_55_32_21158
500,152.0,8_55_32_21209
501,152.0,8_55_32_21243
502,152.0,8_55_32_21292
503,152.0,8_55_32_21326
504,151.0,8_55_32_21359
505,151.0,8_55_32_21409
506,151.0,8_55_32_21442
507,151.0,8_55_32_21493
508,151.0,8_55_32_21525
509,151.0,8_55_32_21559
510,151.0,8_55_32_21609
511,151.0,8_55_32_21642
512,151.0,8_55_33_21692
513,151.0,8_55_33_21726
514,151.0,8_55_33_21775
515,151.0,8_55_33_21809
516,151.0,8_55_33_21859
517,151.0,8_55_33_21892
518,151.0,8_55_33_21943
519,151.0,8_55_33_21975
520,151.0,8_55_33_22009
521,151.0,8_55_33_22059
522,151.0,8_55_33_22093
523,151.0,8_55_33_22142
524,151.0,8_55_33_22176
525,152.0,8_55_33_22226
526,153.0,8_55_33_22259
527,161.0,8_55_33_22293
528,169.0,8_55_33_22342
529,176.0,8_55_33_22375
530,182.0,8_55_33_22426
531,188.0,8_55_33_22459
532,194.0,8_55_33_22493
533,199.0,8_55_33_22542
534,204.0,8_55_33_22576
535,208.0,8_55_33_22625
536,172.0,8_55_33_22659
537,158.0,8_55_34_22693
538,154.0,8_55_34_22742
539,152.0,8_55_34_22776
540,152.0,8_55_34_22826
541,151.0,8_55_34_22859
542,151.0,8_55_34_22909
543,151.0,8_55_34_22942
544,151.0,8_55_34_22992
545,151.0,8_55_34_23025
546,151.0,8_55_34_23076
547,151.0,8_55_34_23109
548,151.0,8_55_34_23142
549,151.0,8_55_34_23192
550,151.0,8_55_34_23225
551,151.0,8_55_34_23276
552,151.0,8_55_34_23309
553,151.0,8_55_34_23359
554,150.0,8_55_34_23392
555,151.0,8_55_34_23442
556,151.0,8_55_34_23476
557,151.0,8_55_34_23509
558,150.0,8_55_34_23559
559,150.0,8_55_34_23593
560,151.0,8_55_34_23642
561,151.0,8_55_35_23675
562,150.0,8_55_35_23709
563,151.0,8_55_35_23759
564,150.0,8_55_35_23793
565,150.0,8_55_35_23843
566,160.0,8_55_35_23876
567,168.0,8_55_35_23909
568,175.0,8_55_35_23959
569,181.0,8_55_35_23992
570,187.0,8_55_35_24042
571,193.0,8_55_35_24076
572,198.0,8_55_35_24126
573,203.0,8_55_35_24159
574,207.0,8_55_35_24209
575,212.0,8_55_35_24242
576,172.0,8_55_35_24276
577,160.0,8_55_35_24326
578,191.0,8_55_35_24359
579,263.0,8_55_35_24409
580,328.0,8_55_35_24442
581,379.0,8_55_35_24493
582,415.0,8_55_35_24526
583,440.0,8_55_35_24576
584,458.0,8_55_35_24610
585,470.0,8_55_35_24642
586,478.0,8_55_36_24692
587,483.0,8_55_36_24726
588,486.0,8_55_36_24775
589,488.0,8_55_36_24809
590,489.0,8_55_36_24859
591,489.0,8_55_36_24892
592,482.0,8_55_36_24926
593,468.0,8_55_36_24976
594,468.0,8_55_36_25009
595,471.0,8_55_36_25059
596,474.0,8_55_36_25092
597,477.0,8_55_36_25143
598,479.0,8_55_36_25175
599,481.0,8_55_36_25209
600,484.0,8_55_36_25260
601,486.0,8_55_36_25292
602,487.0,8_55_36_25343
603,488.0,8_55_36_25376
604,488.0,8_55_36_25426
605,486.0,8_55_36_25459
606,485.0,8_55_36_25493
607,483.0,8_55_36_25543
608,481.0,8_55_36_25576
609,478.0,8_55_36_25626
610,476.0,8_55_36_25659
611,474.0,8_55_37_25710
612,472.0,8_55_37_25742
613,469.0,8_55_37_25776
614,467.0,8_55_37_25826
615,465.0,8_55_37_25860
616,463.0,8_55_37_25909
617,479.0,8_55_37_25943
618,487.0,8_55_37_25993
619,490.0,8_55_37_26026
620,492.0,8_55_37_26076
621,491.0,8_55_37_26109
622,491.0,8_55_37_26143
623,491.0,8_55_37_26192
624,491.0,8_55_37_26226
625,492.0,8_55_37_26276
626,492.0,8_55_37_26309
627,493.0,8_55_37_26343
628,493.0,8_55_37_26392
629,493.0,8_55_37_26425
630,493.0,8_55_37_26475
631,492.0,8_55_37_26509
632,491.0,8_55_37_26559
633,490.0,8_55_37_26593
634,490.0,8_55_37_26642
635,489.0,8_55_38_26676
636,489.0,8_55_38_26710
637,489.0,8_55_38_26759
638,489.0,8_55_38_26793
639,489.0,8_55_38_26843
640,489.0,8_55_38_26876
641,489.0,8_55_38_26926
642,490.0,8_55_38_26959
643,490.0,8_55_38_27009
644,490.0,8_55_38_27043
645,490.0,8_55_38_27076
646,490.0,8_55_38_27126
647,489.0,8_55_38_27159
648,486.0,8_55_38_27209
649,484.0,8_55_38_27242
650,482.0,8_55_38_27293
651,480.0,8_55_38_27326
652,477.0,8_55_38_27359
653,475.0,8_55_38_27409
654,473.0,8_55_38_27442
655,471.0,8_55_38_27493
656,469.0,8_55_38_27526
657,481.0,8_55_38_27560
658,486.0,8_55_38_27609
659,488.0,8_55_38_27643
660,488.0,8_55_39_27692
661,489.0,8_55_39_27726
662,489.0,8_55_39_27776
663,489.0,8_55_39_27809
664,489.0,8_55_39_27843
665,489.0,8_55_39_27893
666,489.0,8_55_39_27926
667,490.0,8_55_39_27976
668,490.0,8_55_39_28010
669,489.0,8_55_39_28059
670,488.0,8_55_39_28093
671,489.0,8_55_39_28143
672,489.0,8_55_39_28176
673,490.0,8_55_39_28226
674,490.0,8_55_39_28259
675,491.0,8_55_39_28293
676,492.0,8_55_39_28342
677,493.0,8_55_39_28376
678,493.0,8_55_39_28426
679,493.0,8_55_39_28459
680,494.0,8_55_39_28493
681,494.0,8_55_39_28542
682,495.0,8_55_39_28576
683,495.0,8_55_39_28626
684,495.0,8_55_39_28659
685,495.0,8_55_40_28710
686,495.0,8_55_40_28743
687,494.0,8_55_40_28776
688,494.0,8_55_40_28827
689,491.0,8_55_40_28860
690,489.0,8_55_40_28910
691,487.0,8_55_40_28942
692,484.0,8_55_40_28993
693,482.0,8_55_40_29027
694,480.0,8_55_40_29059
695,478.0,8_55_40_29110
696,476.0,8_55_40_29143
697,488.0,8_55_40_29193
698,491.0,8_55_40_29226
699,493.0,8_55_40_29276
700,494.0,8_55_40_29310
701,495.0,8_55_40_29360
702,495.0,8_55_40_29393
703,495.0,8_55_40_29427
704,495.0,8_55_40_29476
705,495.0,8_55_40_29509
706,495.0,8_55_40_29559
707,495.0,8_55_40_29593
708,495.0,8_55_40_29643
709,495.0,8_55_41_29676
710,495.0,8_55_41_29726
711,494.0,8_55_41_29759
712,495.0,8_55_41_29792
713,495.0,8_55_41_29843
714,495.0,8_55_41_29876
715,495.0,8_55_41_29926
716,495.0,8_55_41_29959
717,495.0,8_55_41_30009
718,495.0,8_55_41_30042
719,495.0,8_55_41_30076
720,495.0,8_55_41_30126
721,494.0,8_55_41_30160
722,495.0,8_55_41_30210
723,495.0,8_55_41_30243
724,495.0,8_55_41_30292
725,494.0,8_55_41_30326
726,495.0,8_55_41_30359
727,495.0,8_55_41_30409
728,496.0,8_55_41_30444
729,494.0,8_55_41_30493
730,492.0,8_55_41_30526
731,489.0,8_55_41_30577
732,487.0,8_55_41_30609
733,485.0,8_55_41_30643
734,482.0,8_55_42_30692
735,480.0,8_55_42_30727
736,478.0,8_55_42_30776
737,488.0,8_55_42_30810
738,492.0,8_55_42_30859
739,494.0,8_55_42_30892
740,494.0,8_55_42_30943
741,495.0,8_55_42_30976
742,495.0,8_55_42_31010
743,495.0,8_55_42_31060
744,494.0,8_55_42_31093
745,495.0,8_55_42_31143
746,495.0,8_55_42_31176
747,494.0,8_55_42_31209
748,494.0,8_55_42_31260
749,494.0,8_55_42_31293
750,495.0,8_55_42_31343
751,494.0,8_55_42_31376
752,495.0,8_55_42_31426
753,495.0,8_55_42_31460
754,495.0,8_55_42_31493
755,494.0,8_55_42_31544
756,494.0,8_55_42_31576
757,495.0,8_55_42_31626
758,495.0,8_55_42_31659
759,494.0,8_55_43_31709
760,495.0,8_55_43_31742
761,495.0,8_55_43_31792
762,495.0,8_55_43_31826
763,495.0,8_55_43_31876
764,495.0,8_55_43_31910
765,495.0,8_55_43_31944
766,495.0,8_55_43_32085
767,495.0,8_55_43_32140
768,496.0,8_55_43_32158
769,494.0,8_55_43_32174
770,492.0,8_55_43_32190
771,489.0,8_55_43_32207
772,487.0,8_55_43_32224
773,485.0,8_55_43_32274
774,482.0,8_55_43_32307
775,480.0,8_55_43_32357
776,478.0,8_55_43_32390
777,488.0,8_55_43_32441
778,492.0,8_55_43_32474
779,494.0,8_55_43_32524
780,494.0,8_55_43_32557
781,494.0,8_55_43_32590
782,494.0,8_55_43_32640
783,494.0,8_55_44_32673
784,494.0,8_55_44_32723
785,495.0,8_55_44_32756
786,495.0,8_55_44_32790
787,495.0,8_55_44_32840
788,495.0,8_55_44_32873
789,495.0,8_55_44_32923
790,495.0,8_55_44_32957
791,495.0,8_55_44_33007
792,495.0,8_55_44_33040
793,494.0,8_55_44_33090
794,494.0,8_55_44_33123
795,494.0,8_55_44_33156
796,494.0,8_55_44_33207
797,494.0,8_55_44_33241
798,494.0,8_55_44_33291
799,495.0,8_55_44_33324
800,495.0,8_55_44_33373
801,495.0,8_55_44_33408
802,494.0,8_55_44_33457
803,495.0,8_55_44_33490
804,495.0,8_55_44_33524
805,495.0,8_55_44_33574
806,500.0,8_55_44_33606
807,492.0,8_55_44_33657
808,495.0,8_55_45_33691
809,499.0,8_55_45_33740
810,498.0,8_55_45_33774
811,487.0,8_55_45_33807
812,493.0,8_55_45_33857
813,492.0,8_55_45_33890
814,493.0,8_55_45_33940
815,494.0,8_55_45_33974
816,494.0,8_55_45_34007
817,494.0,8_55_45_34057
818,494.0,8_55_45_34090
819,494.0,8_55_45_34140
820,494.0,8_55_45_34174
821,494.0,8_55_45_34223
822,494.0,8_55_45_34257
823,494.0,8_55_45_34307
824,494.0,8_55_45_34340
825,494.0,8_55_45_34390
826,495.0,8_55_45_34423
827,502.0,8_55_45_34457
828,501.0,8_55_45_34507
829,499.0,8_55_45_34540
830,499.0,8_55_45_34591
831,499.0,8_55_45_34623
832,507.0,8_55_46_34674
833,500.0,8_55_46_34707
834,496.0,8_55_46_34741
835,494.0,8_55_46_34791
836,487.0,8_55_46_34824
837,505.0,8_55_46_34873
838,487.0,8_55_46_34907
839,490.0,8_55_46_34957
840,493.0,8_55_46_34990
841,492.0,8_55_46_35024
842,492.0,8_55_46_35073
843,492.0,8_55_46_35107
844,489.0,8_55_46_35157
845,492.0,8_55_46_35190
846,493.0,8_55_46_35241
847,494.0,8_55_46_35274
848,494.0,8_55_46_35324
849,494.0,8_55_46_35357
850,495.0,8_55_46_35391
851,494.0,8_55_46_35441
852,497.0,8_55_46_35474
853,496.0,8_55_46_35523
854,496.0,8_55_46_35557
855,496.0,8_55_46_35607
856,498.0,8_55_46_35640
857,498.0,8_55_47_35674
858,498.0,8_55_47_35723
859,500.0,8_55_47_35757
860,500.0,8_55_47_35807
861,500.0,8_55_47_35841
862,498.0,8_55_47_35890
863,496.0,8_55_47_35923
864,496.0,8_55_47_35957
865,496.0,8_55_47_36007
866,495.0,8_55_47_36040
867,495.0,8_55_47_36091
868,494.0,8_55_47_36123
869,494.0,8_55_47_36173
870,494.0,8_55_47_36207
871,493.0,8_55_47_36256
872,494.0,8_55_47_36290
873,492.0,8_55_47_36323
874,492.0,8_55_47_36373
875,492.0,8_55_47_36407
876,491.0,8_55_47_36457
877,491.0,8_55_47_36490
878,490.0,8_55_47_36540
879,490.0,8_55_47_36574
880,492.0,8_55_47_36623
881,493.0,8_55_47_36657
882,494.0,8_55_48_36691
883,494.0,8_55_48_36740
884,495.0,8_55_48_36774
885,495.0,8_55_48_36823
886,494.0,8_55_48_36857
887,497.0,8_55_48_36891
888,496.0,8_55_48_36940
889,496.0,8_55_48_36974
890,497.0,8_55_48_37024
891,497.0,8_55_48_37057
892,498.0,8_55_48_37107
893,502.0,8_55_48_37140
894,497.0,8_55_48_37191
895,499.0,8_55_48_37223
896,499.0,8_55_48_37257
897,497.0,8_55_48_37307
898,496.0,8_55_48_37340
899,496.0,8_55_48_37391
900,496.0,8_55_48_37426
901,495.0,8_55_48_37474
902,495.0,8_55_48_37507
903,494.0,8_55_48_37557
904,494.0,8_55_48_37591
905,494.0,8_55_48_37624
906,493.0,8_55_49_37673
907,491.0,8_55_49_37707
908,494.0,8_55_49_37757
909,493.0,8_55_49_37791
910,492.0,8_55_49_37840
911,491.0,8_55_49_37874
912,491.0,8_55_49_37907
913,490.0,8_55_49_37959
914,489.0,8_55_49_37991
915,491.0,8_55_49_38041
916,492.0,8_55_49_38074
917,492.0,8_55_49_38123
918,492.0,8_55_49_38158
919,492.0,8_55_49_38191
920,492.0,8_55_49_38241
921,496.0,8_55_49_38274
922,492.0,8_55_49_38323
923,494.0,8_55_49_38357
924,494.0,8_55_49_38407
925,495.0,8_55_49_38440
926,496.0,8_55_49_38491
927,497.0,8_55_49_38524
928,505.0,8_55_49_38557
929,494.0,8_55_49_38607
930,498.0,8_55_49_38641
931,498.0,8_55_50_38690
932,498.0,8_55_50_38724
933,496.0,8_55_50_38773
934,492.0,8_55_50_38807
935,488.0,8_55_50_38840
936,487.0,8_55_50_38890
937,485.0,8_55_50_38924
938,483.0,8_55_50_38975
939,482.0,8_55_50_39008
940,484.0,8_55_50_39057
941,482.0,8_55_50_39090
942,437.0,8_55_50_39124
943,406.0,8_55_50_39174
944,359.0,8_55_50_39207
945,317.0,8_55_50_39258
946,284.0,8_55_50_39290
947,258.0,8_55_50_39340
948,266.0,8_55_50_39373
949,284.0,8_55_50_39424
950,299.0,8_55_50_39458
951,320.0,8_55_50_39507
952,358.0,8_55_50_39540
953,384.0,8_55_50_39574
954,371.0,8_55_50_39624
955,343.0,8_55_50_39658
956,312.0,8_55_51_39707
957,295.0,8_55_51_39740
958,295.0,8_55_51_39790
959,321.0,8_55_51_39824
960,346.0,8_55_51_39858
961,352.0,8_55_51_39907
962,350.0,8_55_51_39941
963,343.0,8_55_51_39990
964,333.0,8_55_51_40024
965,326.0,8_55_51_40057
966,352.0,8_55_51_40107
967,387.0,8_55_51_40141
968,417.0,8_55_51_40191
969,440.0,8_55_51_40224
970,457.0,8_55_51_40274
971,470.0,8_55_51_40307
972,478.0,8_55_51_40358
973,482.0,8_55_51_40391
974,484.0,8_55_51_40441
975,489.0,8_55_51_40474
976,490.0,8_55_51_40507
977,491.0,8_55_51_40557
978,491.0,8_55_51_40590
979,491.0,8_55_51_40641
980,491.0,8_55_52_40674
981,490.0,8_55_52_40724
982,490.0,8_55_52_40757
983,490.0,8_55_52_40790
984,490.0,8_55_52_40841
985,490.0,8_55_52_40874
986,491.0,8_55_52_40924
987,492.0,8_55_52_40957
988,493.0,8_55_52_41008
989,494.0,8_55_52_41041
990,494.0,8_55_52_41073
991,494.0,8_55_52_41123
992,495.0,8_55_52_41157
993,495.0,8_55_52_41207
994,495.0,8_55_52_41240
995,495.0,8_55_52_41290
996,496.0,8_55_52_41324
997,496.0,8_55_52_41374
998,497.0,8_55_52_41407
999,497.0,8_55_52_41441
1000,498.0,8_55_52_41490
1001,499.0,8_55_52_41524
1002,498.0,8_55_52_41574
1003,497.0,8_55_52_41607
1004,496.0,8_55_52_41657
1005,495.0,8_55_53_41691
1006,480.0,8_55_53_41724
1007,417.0,8_55_53_41774
1008,338.0,8_55_53_41808
1009,261.0,8_55_53_41857
1010,212.0,8_55_53_41891
1011,172.0,8_55_53_41941
1012,140.0,8_55_53_41974
1013,114.0,8_55_53_42008
1014,94.0,8_55_53_42057
1015,79.0,8_55_53_42091
1016,67.0,8_55_53_42141
1017,59.0,8_55_53_42174
1018,66.0,8_55_53_42207
1019,79.0,8_55_53_42257
1020,83.0,8_55_53_42290
1021,83.0,8_55_53_42341
1022,78.0,8_55_53_42374
1023,72.0,8_55_53_42424
1024,60.0,8_55_53_42457
1025,55.0,8_55_53_42507
1026,50.0,8_55_53_42541
1027,45.0,8_55_53_42574
1028,40.0,8_55_53_42624
1029,36.0,8_55_53_42657
1030,33.0,8_55_54_42707
1031,31.0,8_55_54_42741
1032,32.0,8_55_54_42791
1033,34.0,8_55_54_42824
1034,35.0,8_55_54_42874
1035,37.0,8_55_54_42908
1036,40.0,8_55_54_42941
1037,42.0,8_55_54_42991
1038,45.0,8_55_54_43024
1039,45.0,8_55_54_43074
1040,47.0,8_55_54_43108
1041,49.0,8_55_54_43141
1042,49.0,8_55_54_43191
1043,49.0,8_55_54_43224
1044,48.0,8_55_54_43274
1045,50.0,8_55_54_43307
1046,49.0,8_55_54_43358
1047,47.0,8_55_54_43391
1048,46.0,8_55_54_43424
1049,44.0,8_55_54_43474
1050,43.0,8_55_54_43507
1051,42.0,8_55_54_43557
1052,40.0,8_55_54_43591
1053,40.0,8_55_54_43624
1054,39.0,8_55_55_43674
1055,37.0,8_55_55_43707
1056,37.0,8_55_55_43757
1057,36.0,8_55_55_43791
1058,36.0,8_55_55_43841
1059,34.0,8_55_55_43874
1060,33.0,8_55_55_43908
1061,32.0,8_55_55_43958
1062,30.0,8_55_55_43991
1063,30.0,8_55_55_44040
1064,29.0,8_55_55_44074
1065,26.0,8_55_55_44124
1066,27.0,8_55_55_44158
1067,25.0,8_55_55_44208
1068,25.0,8_55_55_44241
1069,27.0,8_55_55_44274
1070,28.0,8_55_55_44324
1071,29.0,8_55_55_44357
1072,29.0,8_55_55_44407
1073,30.0,8_55_55_44441
1074,29.0,8_55_55_44491
1075,28.0,8_55_55_44524
1076,28.0,8_55_55_44558
1077,27.0,8_55_55_44608
1078,27.0,8_55_55_44640
1079,30.0,8_55_56_44691
1080,26.0,8_55_56_44725
1081,27.0,8_55_56_44775
1082,29.0,8_55_56_44807
1083,28.0,8_55_56_44841
1084,30.0,8_55_56_44891
1085,30.0,8_55_56_44924
1086,46.0,8_55_56_44975
1087,27.0,8_55_56_45008
1088,32.0,8_55_56_45057
1089,34.0,8_55_56_45091
1090,36.0,8_55_56_45141
1091,38.0,8_55_56_45174
1092,39.0,8_55_56_45207
1093,40.0,8_55_56_45258
1094,40.0,8_55_56_45291
1095,40.0,8_55_56_45341
1096,40.0,8_55_56_45375
1097,41.0,8_55_56_45408
1098,40.0,8_55_56_45458
1099,39.0,8_55_56_45491
1100,39.0,8_55_56_45541
1101,38.0,8_55_56_45575
1102,38.0,8_55_56_45608
1103,37.0,8_55_56_45657
1104,37.0,8_55_57_45690
1105,36.0,8_55_57_45740
1106,35.0,8_55_57_45774
1107,35.0,8_55_57_45824
1108,34.0,8_55_57_45858
1109,32.0,8_55_57_45891
1110,31.0,8_55_57_45941
1111,31.0,8_55_57_45975
1112,30.0,8_55_57_46024
1113,29.0,8_55_57_46058
1114,28.0,8_55_57_46107
1115,27.0,8_55_57_46141
1116,26.0,8_55_57_46191
1117,25.0,8_55_57_46225
1118,31.0,8_55_57_46257
1119,21.0,8_55_57_46308
1120,23.0,8_55_57_46341
1121,24.0,8_55_57_46391
1122,24.0,8_55_57_46425
1123,25.0,8_55_57_46474
1124,25.0,8_55_57_46507
1125,26.0,8_55_57_46540
1126,25.0,8_55_57_46591
1127,26.0,8_55_57_46624
1128,27.0,8_55_58_46674
1129,28.0,8_55_58_46707
1130,28.0,8_55_58_46757
1131,29.0,8_55_58_46790
1132,20.0,8_55_58_46824
1133,35.0,8_55_58_46874
1134,32.0,8_55_58_46907
1135,32.0,8_55_58_46957
1136,33.0,8_55_58_46991
1137,34.0,8_55_58_47041
1138,36.0,8_55_58_47074
1139,36.0,8_55_58_47108
1140,38.0,8_55_58_47157
1141,39.0,8_55_58_47191
1142,38.0,8_55_58_47241
1143,38.0,8_55_58_47274
1144,39.0,8_55_58_47308
1145,39.0,8_55_58_47358
1146,39.0,8_55_58_47391
1147,37.0,8_55_58_47441
1148,38.0,8_55_58_47475
1149,38.0,8_55_58_47525
1150,37.0,8_55_58_47558
1151,37.0,8_55_58_47591
1152,36.0,8_55_58_47641
1153,37.0,8_55_59_47674
1154,34.0,8_55_59_47725
1155,33.0,8_55_59_47758
1156,32.0,8_55_59_47808
1157,32.0,8_55_59_47841
1158,30.0,8_55_59_47874
1159,30.0,8_55_59_47924
1160,16.0,8_55_59_47957
1161,32.0,8_55_59_48008
1162,28.0,8_55_59_48041
1163,25.0,8_55_59_48091
1164,26.0,8_55_59_48124
1165,25.0,8_55_59_48174
1166,24.0,8_55_59_48207
1167,23.0,8_55_59_48242
1168,26.0,8_55_59_48291
1169,25.0,8_55_59_48325
1170,25.0,8_55_59_48374
1171,25.0,8_55_59_48408
1172,26.0,8_55_59_48457
1173,26.0,8_55_59_48491
1174,29.0,8_55_59_48524
1175,26.0,8_55_59_48574
1176,27.0,8_55_59_48608
1177,27.0,8_55_59_48658
1178,28.0,8_56_0_48691
1179,29.0,8_56_0_48724
1180,30.0,8_56_0_48774
1181,31.0,8_56_0_48808
1182,33.0,8_56_0_48858
1183,34.0,8_56_0_48891
1184,35.0,8_56_0_48941
1185,38.0,8_56_0_48974
1186,38.0,8_56_0_49007
1187,38.0,8_56_0_49057
1188,39.0,8_56_0_49090
1189,39.0,8_56_0_49141
1190,39.0,8_56_0_49174
1191,39.0,8_56_0_49208
1192,39.0,8_56_0_49258
1193,39.0,8_56_0_49291
1194,38.0,8_56_0_49341
1195,38.0,8_56_0_49375
1196,37.0,8_56_0_49425
1197,36.0,8_56_0_49458
1198,36.0,8_56_0_49507
1199,35.0,8_56_0_49541
1200,34.0,8_56_0_49575
1201,33.0,8_56_0_49625
1202,31.0,8_56_0_49658
1203,30.0,8_56_1_49708
1204,30.0,8_56_1_49741
1205,28.0,8_56_1_49791
1206,36.0,8_56_1_49824
1207,23.0,8_56_1_49857
1208,24.0,8_56_1_49907
1209,24.0,8_56_1_49941
1210,24.0,8_56_1_49991
1211,24.0,8_56_1_50024
1212,24.0,8_56_1_50074
1213,24.0,8_56_1_50107
1214,25.0,8_56_1_50158
1215,25.0,8_56_1_50191
1216,25.0,8_56_1_50224
1217,28.0,8_56_1_50274
1218,26.0,8_56_1_50308
1219,27.0,8_56_1_50358
1220,24.0,8_56_1_50391
1221,29.0,8_56_1_50425
1222,28.0,8_56_1_50474
1223,29.0,8_56_1_50508
1224,30.0,8_56_1_50558
1225,31.0,8_56_1_50591
1226,32.0,8_56_1_50641
1227,37.0,8_56_2_50675
1228,32.0,8_56_2_50708
1229,35.0,8_56_2_50758
1230,37.0,8_56_2_50792
1231,36.0,8_56_2_50841
1232,38.0,8_56_2_50875
1233,39.0,8_56_2_50925
1234,40.0,8_56_2_50958
1235,39.0,8_56_2_50991
1236,39.0,8_56_2_51041
1237,39.0,8_56_2_51075
1238,38.0,8_56_2_51125
1239,38.0,8_56_2_51158
1240,38.0,8_56_2_51191
1241,32.0,8_56_2_51241
1242,38.0,8_56_2_51274
1243,36.0,8_56_2_51324
1244,35.0,8_56_2_51357
1245,34.0,8_56_2_51408
1246,33.0,8_56_2_51441
1247,31.0,8_56_2_51491
1248,29.0,8_56_2_51525
1249,30.0,8_56_2_51558
1250,28.0,8_56_2_51608
1251,27.0,8_56_2_51642
1252,26.0,8_56_3_51692
1253,25.0,8_56_3_51724
1254,25.0,8_56_3_51774
1255,26.0,8_56_3_51808
1256,23.0,8_56_3_51841
1257,24.0,8_56_3_51891
1258,25.0,8_56_3_51925
1259,29.0,8_56_3_51974
1260,23.0,8_56_3_52008
1261,25.0,8_56_3_52058
1262,26.0,8_56_3_52091
1263,26.0,8_56_3_52125
1264,27.0,8_56_3_52175
1265,27.0,8_56_3_52208
1266,27.0,8_56_3_52258
1267,29.0,8_56_3_52291
1268,29.0,8_56_3_52341
1269,30.0,8_56_3_52374
1270,32.0,8_56_3_52408
1271,32.0,8_56_3_52458
1272,34.0,8_56_3_52491
1273,31.0,8_56_3_52541
1274,39.0,8_56_3_52575
1275,38.0,8_56_3_52608
1276,38.0,8_56_3_52657
1277,40.0,8_56_4_52692
1278,39.0,8_56_4_52742
1279,39.0,8_56_4_52775
1280,39.0,8_56_4_52824
1281,39.0,8_56_4_52858
1282,39.0,8_56_4_52891
1283,38.0,8_56_4_52941
1284,36.0,8_56_4_52975
1285,36.0,8_56_4_53024
1286,36.0,8_56_4_53058
1287,41.0,8_56_4_53108
1288,31.0,8_56_4_53141
1289,33.0,8_56_4_53175
1290,32.0,8_56_4_53224
1291,31.0,8_56_4_53258
1292,30.0,8_56_4_53308
1293,29.0,8_56_4_53341
1294,25.0,8_56_4_53391
1295,28.0,8_56_4_53424
1296,26.0,8_56_4_53474
1297,25.0,8_56_4_53508
1298,27.0,8_56_4_53541
1299,24.0,8_56_4_53591
1300,24.0,8_56_4_53625
1301,24.0,8_56_5_53675
1302,26.0,8_56_5_53708
1303,25.0,8_56_5_53758
1304,25.0,8_56_5_53792
1305,26.0,8_56_5_53825
1306,26.0,8_56_5_53874
1307,27.0,8_56_5_53908
1308,35.0,8_56_5_53958
1309,24.0,8_56_5_53991
1310,27.0,8_56_5_54025
1311,29.0,8_56_5_54075
1312,30.0,8_56_5_54108
1313,31.0,8_56_5_54158
1314,32.0,8_56_5_54191
1315,35.0,8_56_5_54241
1316,34.0,8_56_5_54275
1317,36.0,8_56_5_54308
1318,37.0,8_56_5_54358
1319,39.0,8_56_5_54391
1320,38.0,8_56_5_54441
1321,39.0,8_56_5_54475
1322,39.0,8_56_5_54508
1323,40.0,8_56_5_54558
1324,39.0,8_56_5_54591
1325,39.0,8_56_5_54642
1326,36.0,8_56_6_54675
1327,38.0,8_56_6_54725
1328,37.0,8_56_6_54758
1329,37.0,8_56_6_54808
1330,36.0,8_56_6_54841
1331,35.0,8_56_6_54875
1332,34.0,8_56_6_54924
1333,33.0,8_56_6_54958
1334,32.0,8_56_6_55008
1335,31.0,8_56_6_55041
1336,29.0,8_56_6_55091
1337,27.0,8_56_6_55125
1338,27.0,8_56_6_55158
1339,26.0,8_56_6_55208
1340,25.0,8_56_6_55241
1341,24.0,8_56_6_55292
1342,24.0,8_56_6_55325
1343,24.0,8_56_6_55375
1344,24.0,8_56_6_55409
1345,25.0,8_56_6_55458
1346,25.0,8_56_6_55491
1347,25.0,8_56_6_55525
1348,25.0,8_56_6_55575
1349,26.0,8_56_6_55608
1350,26.0,8_56_6_55658
1351,29.0,8_56_7_55691
1352,28.0,8_56_7_55725
1353,28.0,8_56_7_55775
1354,28.0,8_56_7_55808
1355,30.0,8_56_7_55858
1356,31.0,8_56_7_55891
1357,32.0,8_56_7_55942
1358,33.0,8_56_7_55975
1359,34.0,8_56_7_56008
1360,35.0,8_56_7_56058
1361,40.0,8_56_7_56092
1362,37.0,8_56_7_56141
1363,38.0,8_56_7_56174
1364,39.0,8_56_7_56208
1365,36.0,8_56_7_56258
1366,39.0,8_56_7_56291
1367,39.0,8_56_7_56342
1368,40.0,8_56_7_56375
1369,37.0,8_56_7_56425
1370,38.0,8_56_7_56458
1371,38.0,8_56_7_56491
1372,37.0,8_56_7_56541
1373,36.0,8_56_7_56575
1374,36.0,8_56_7_56625
1375,11.0,8_56_7_56658
1376,43.0,8_56_8_56708
1377,35.0,8_56_8_56741
1378,32.0,8_56_8_56791
1379,31.0,8_56_8_56824
1380,29.0,8_56_8_56858
1381,28.0,8_56_8_56909
1382,25.0,8_56_8_56942
1383,27.0,8_56_8_56992
1384,25.0,8_56_8_57025
1385,24.0,8_56_8_57075
1386,24.0,8_56_8_57108
1387,24.0,8_56_8_57142
1388,24.0,8_56_8_57192
1389,25.0,8_56_8_57225
1390,25.0,8_56_8_57275
1391,26.0,8_56_8_57308
1392,26.0,8_56_8_57358
1393,27.0,8_56_8_57392
1394,25.0,8_56_8_57425
1395,27.0,8_56_8_57475
1396,27.0,8_56_8_57508
1397,28.0,8_56_8_57558
1398,29.0,8_56_8_57592
1399,29.0,8_56_8_57642
1400,31.0,8_56_9_57675
1401,31.0,8_56_9_57709
1402,33.0,8_56_9_57758
1403,34.0,8_56_9_57792
1404,35.0,8_56_9_57841
1405,37.0,8_56_9_57874
1406,38.0,8_56_9_57925
1407,36.0,8_56_9_57958
1408,40.0,8_56_9_57992
1409,39.0,8_56_9_58042
1410,39.0,8_56_9_58074
1411,41.0,8_56_9_58125
1412,40.0,8_56_9_58158
1413,39.0,8_56_9_58191
1414,39.0,8_56_9_58242
1415,38.0,8_56_9_58275
1416,37.0,8_56_9_58325
1417,37.0,8_56_9_58358
1418,34.0,8_56_9_58408
1419,35.0,8_56_9_58442
1420,34.0,8_56_9_58475
1421,34.0,8_56_9_58525
1422,31.0,8_56_9_58558
1423,30.0,8_56_9_58609
1424,30.0,8_56_9_58642
1425,29.0,8_56_10_58691
1426,27.0,8_56_10_58725
1427,26.0,8_56_10_58775
1428,24.0,8_56_10_58809
1429,25.0,8_56_10_58842
1430,25.0,8_56_10_58892
1431,24.0,8_56_10_58924
1432,26.0,8_56_10_58975
1433,24.0,8_56_10_59008
1434,25.0,8_56_10_59058
1435,24.0,8_56_10_59092
1436,26.0,8_56_10_59125
1437,26.0,8_56_10_59175
1438,26.0,8_56_10_59208
1439,27.0,8_56_10_59258
1440,27.0,8_56_10_59291
1441,27.0,8_56_10_59341
1442,34.0,8_56_10_59375
1443,27.0,8_56_10_59408
1444,29.0,8_56_10_59458
1445,30.0,8_56_10_59492
1446,31.0,8_56_10_59542
1447,32.0,8_56_10_59575
1448,34.0,8_56_10_59608
1449,38.0,8_56_10_59658
1450,36.0,8_56_11_59692
1451,37.0,8_56_11_59741
1452,38.0,8_56_11_59775
1453,40.0,8_56_11_59825
1454,39.0,8_56_11_59859
1455,40.0,8_56_11_59892
1456,38.0,8_56_11_59942
1457,41.0,8_56_11_59975
1458,39.0,8_56_11_60025
1459,38.0,8_56_11_60058
1460,38.0,8_56_11_60092
1461,37.0,8_56_11_60141
1462,37.0,8_56_11_60174
1463,36.0,8_56_11_60225
1464,35.0,8_56_11_60258
1465,34.0,8_56_11_60309
1466,33.0,8_56_11_60341
1467,32.0,8_56_11_60391
1468,30.0,8_56_11_60425
1469,30.0,8_56_11_60458
1470,29.0,8_56_11_60508
1471,28.0,8_56_11_60542
1472,27.0,8_56_11_60591
1473,25.0,8_56_11_60625
1474,33.0,8_56_12_60675
1475,20.0,8_56_12_60708
1476,23.0,8_56_12_60758
1477,24.0,8_56_12_60792
1478,24.0,8_56_12_60825
1479,25.0,8_56_12_60875
1480,25.0,8_56_12_60909
1481,25.0,8_56_12_60958
1482,25.0,8_56_12_60992
1483,26.0,8_56_12_61042
1484,26.0,8_56_12_61075
1485,26.0,8_56_12_61108
1486,27.0,8_56_12_61159
1487,27.0,8_56_12_61192
1488,21.0,8_56_12_61242
1489,33.0,8_56_12_61275
1490,31.0,8_56_12_61308
1491,32.0,8_56_12_61359
1492,33.0,8_56_12_61391
1493,33.0,8_56_12_61441
1494,35.0,8_56_12_61475
1495,36.0,8_56_12_61509
1496,37.0,8_56_12_61558
1497,38.0,8_56_12_61591
1498,38.0,8_56_12_61642
1499,38.0,8_56_13_61676
1500,40.0,8_56_13_61725
1501,40.0,8_56_13_61758
1502,39.0,8_56_13_61792
1503,37.0,8_56_13_61842
1504,38.0,8_56_13_61876
1505,38.0,8_56_13_61925
1506,37.0,8_56_13_61958
1507,37.0,8_56_13_62008
1508,36.0,8_56_13_62042
1509,27.0,8_56_13_62075
1510,39.0,8_56_13_62125
1511,35.0,8_56_13_62159
1512,33.0,8_56_13_62209
1513,33.0,8_56_13_62241
1514,31.0,8_56_13_62291
1515,30.0,8_56_13_62325
1516,24.0,8_56_13_62375
1517,30.0,8_56_13_62409
1518,27.0,8_56_13_62442
1519,26.0,8_56_13_62492
1520,26.0,8_56_13_62526
1521,25.0,8_56_13_62576
1522,24.0,8_56_13_62609
1523,27.0,8_56_13_62658
1524,23.0,8_56_14_62692
1525,24.0,8_56_14_62725
1526,25.0,8_56_14_62775
1527,28.0,8_56_14_62808
1528,24.0,8_56_14_62859
1529,25.0,8_56_14_62892
1530,26.0,8_56_14_62942
1531,27.0,8_56_14_62975
1532,27.0,8_56_14_63008
1533,27.0,8_56_14_63059
1534,28.0,8_56_14_63092
1535,29.0,8_56_14_63142
1536,30.0,8_56_14_63175
1537,31.0,8_56_14_63226
1538,32.0,8_56_14_63259
1539,33.0,8_56_14_63292
1540,34.0,8_56_14_63342
1541,34.0,8_56_14_63375
1542,38.0,8_56_14_63426
1543,38.0,8_56_14_63459
1544,38.0,8_56_14_63492
1545,40.0,8_56_14_63542
1546,39.0,8_56_14_63575
1547,39.0,8_56_14_63625
1548,39.0,8_56_14_63659
1549,39.0,8_56_15_63708
1550,38.0,8_56_15_63742
1551,38.0,8_56_15_63775
1552,37.0,8_56_15_63825
1553,37.0,8_56_15_63858
1554,37.0,8_56_15_63908
1555,40.0,8_56_15_63941
1556,32.0,8_56_15_63992
1557,34.0,8_56_15_64026
1558,33.0,8_56_15_64058
1559,32.0,8_56_15_64109
1560,31.0,8_56_15_64142
1561,30.0,8_56_15_64191
1562,30.0,8_56_15_64225
1563,28.0,8_56_15_64276
1564,27.0,8_56_15_64309
1565,26.0,8_56_15_64358
1566,26.0,8_56_15_64392
1567,25.0,8_56_15_64425
1568,24.0,8_56_15_64475
1569,24.0,8_56_15_64508
1570,26.0,8_56_15_64558
1571,25.0,8_56_15_64592
1572,25.0,8_56_15_64642
1573,25.0,8_56_16_64675
1574,25.0,8_56_16_64709
1575,26.0,8_56_16_64758
1576,24.0,8_56_16_64792
1577,28.0,8_56_16_64842
1578,27.0,8_56_16_64875
1579,27.0,8_56_16_64909
1580,28.0,8_56_16_64958
1581,28.0,8_56_16_64992
1582,30.0,8_56_16_65042
1583,49.0,8_56_16_65075
1584,24.0,8_56_16_65125
1585,30.0,8_56_16_65159
1586,33.0,8_56_16_65192
1587,35.0,8_56_16_65242
1588,36.0,8_56_16_65275
1589,37.0,8_56_16_65326
1590,40.0,8_56_16_65359
1591,38.0,8_56_16_65392
1592,39.0,8_56_16_65442
1593,39.0,8_56_16_65476
1594,40.0,8_56_16_65525
1595,39.0,8_56_16_65559
1596,39.0,8_56_16_65608
1597,39.0,8_56_16_65642
1598,39.0,8_56_17_65692
1599,38.0,8_56_17_65726
1600,37.0,8_56_17_65758
1601,37.0,8_56_17_65808
1602,36.0,8_56_17_65842
1603,35.0,8_56_17_65892
1604,34.0,8_56_17_65925
1605,33.0,8_56_17_65975
1606,32.0,8_56_17_66009
1607,30.0,8_56_17_66042
1608,30.0,8_56_17_66092
1609,29.0,8_56_17_66126
1610,28.0,8_56_17_66176
1611,27.0,8_56_17_66208
1612,25.0,8_56_17_66259
1613,25.0,8_56_17_66292
1614,24.0,8_56_17_66342
1615,27.0,8_56_17_66375
1616,23.0,8_56_17_66408
1617,24.0,8_56_17_66458
1618,24.0,8_56_17_66492
1619,25.0,8_56_17_66542
1620,25.0,8_56_17_66575
1621,26.0,8_56_17_66609
1622,25.0,8_56_17_66659
1623,26.0,8_56_18_66692
1624,27.0,8_56_18_66742
1625,27.0,8_56_18_66775
1626,28.0,8_56_18_66810
1627,29.0,8_56_18_66859
1628,30.0,8_56_18_66892
1629,26.0,8_56_18_66942
1630,34.0,8_56_18_66976
1631,33.0,8_56_18_67025
1632,33.0,8_56_18_67059
1633,35.0,8_56_18_67092
1634,37.0,8_56_18_67142
1635,38.0,8_56_18_67175
1636,38.0,8_56_18_67225
1637,39.0,8_56_18_67259
1638,39.0,8_56_18_67309
1639,39.0,8_56_18_67342
1640,38.0,8_56_18_67376
1641,39.0,8_56_18_67425
1642,39.0,8_56_18_67459
1643,39.0,8_56_18_67509
1644,37.0,8_56_18_67542
1645,37.0,8_56_18_67592
1646,37.0,8_56_18_67626
1647,36.0,8_56_19_67675
1648,35.0,8_56_19_67708
1649,34.0,8_56_19_67742
1650,34.0,8_56_19_67792
1651,31.0,8_56_19_67825
1652,31.0,8_56_19_67875
1653,30.0,8_56_19_67909
1654,29.0,8_56_19_67959
1655,28.0,8_56_19_67992
1656,26.0,8_56_19_68026
1657,23.0,8_56_19_68076
1658,26.0,8_56_19_68109
1659,25.0,8_56_19_68159
1660,25.0,8_56_19_68192
1661,26.0,8_56_19_68242
1662,24.0,8_56_19_68275
1663,24.0,8_56_19_68308
1664,23.0,8_56_19_68359
1665,26.0,8_56_19_68392
1666,26.0,8_56_19_68442
1667,26.0,8_56_19_68476
1668,26.0,8_56_19_68525
1669,26.0,8_56_19_68559
1670,27.0,8_56_19_68592
1671,34.0,8_56_19_68642
1672,25.0,8_56_20_68676
1673,29.0,8_56_20_68725
1674,30.0,8_56_20_68759
1675,31.0,8_56_20_68809
1676,31.0,8_56_20_68842
1677,33.0,8_56_20_68875
1678,36.0,8_56_20_68926
1679,35.0,8_56_20_68959
1680,37.0,8_56_20_69009
1681,39.0,8_56_20_69042
1682,40.0,8_56_20_69076
1683,40.0,8_56_20_69125
1684,40.0,8_56_20_69159
1685,40.0,8_56_20_69209
1686,40.0,8_56_20_69242
1687,40.0,8_56_20_69292
1688,39.0,8_56_20_69326
1689,37.0,8_56_20_69359
1690,39.0,8_56_20_69409
1691,38.0,8_56_20_69442
1692,37.0,8_56_20_69492
1693,37.0,8_56_20_69525
1694,35.0,8_56_20_69575
1695,34.0,8_56_20_69609
1696,34.0,8_56_20_69659
1697,32.0,8_56_21_69693
1698,31.0,8_56_21_69726
1699,30.0,8_56_21_69775
1700,29.0,8_56_21_69809
1701,28.0,8_56_21_69858
1702,27.0,8_56_21_69892
1703,35.0,8_56_21_69942
1704,19.0,8_56_21_69976
1705,23.0,8_56_21_70009
1706,24.0,8_56_21_70058
1707,24.0,8_56_21_70092
1708,25.0,8_56_21_70142
1709,24.0,8_56_21_70175
1710,24.0,8_56_21_70209
1711,25.0,8_56_21_70259
1712,25.0,8_56_21_70292
1713,26.0,8_56_21_70342
1714,27.0,8_56_21_70375
1715,27.0,8_56_21_70425
1716,27.0,8_56_21_70459
1717,22.0,8_56_21_70493
1718,32.0,8_56_21_70542
1719,30.0,8_56_21_70575
1720,31.0,8_56_21_70626
1721,31.0,8_56_21_70659
1722,32.0,8_56_22_70708
1723,33.0,8_56_22_70742
1724,37.0,8_56_22_70775
1725,35.0,8_56_22_70825
1726,36.0,8_56_22_70859
1727,37.0,8_56_22_70908
1728,37.0,8_56_22_70943
1729,39.0,8_56_22_70992
1730,40.0,8_56_22_71026
1731,40.0,8_56_22_71059
1732,39.0,8_56_22_71109
1733,39.0,8_56_22_71142
1734,39.0,8_56_22_71192
1735,39.0,8_56_22_71225
1736,38.0,8_56_22_71275
1737,37.0,8_56_22_71309
1738,34.0,8_56_22_71342
1739,37.0,8_56_22_71392
1740,36.0,8_56_22_71425
1741,34.0,8_56_22_71475
1742,34.0,8_56_22_71509
1743,33.0,8_56_22_71559
1744,31.0,8_56_22_71592
1745,30.0,8_56_22_71642
1746,30.0,8_56_23_71676
1747,28.0,8_56_23_71709
1748,27.0,8_56_23_71759
1749,27.0,8_56_23_71792
1750,25.0,8_56_23_71843
1751,25.0,8_56_23_71876
1752,24.0,8_56_23_71926
1753,24.0,8_56_23_71959
1754,24.0,8_56_23_71992
1755,25.0,8_56_23_72042
1756,28.0,8_56_23_72075
1757,24.0,8_56_23_72109
1758,25.0,8_56_23_72159
1759,26.0,8_56_23_72192
1760,26.0,8_56_23_72242
1761,27.0,8_56_23_72276
1762,27.0,8_56_23_72325
1763,28.0,8_56_23_72359
1764,28.0,8_56_23_72392
1765,29.0,8_56_23_72443
1766,30.0,8_56_23_72476
1767,32.0,8_56_23_72526
1768,32.0,8_56_23_72559
1769,33.0,8_56_23_72609
1770,34.0,8_56_23_72643
1771,35.0,8_56_24_72676
1772,37.0,8_56_24_72726
1773,37.0,8_56_24_72759
1774,39.0,8_56_24_72809
1775,39.0,8_56_24_72843
1776,39.0,8_56_24_72893
1777,39.0,8_56_24_72926
1778,39.0,8_56_24_72976
1779,39.0,8_56_24_73009
1780,39.0,8_56_24_73043
1781,37.0,8_56_24_73093
1782,38.0,8_56_24_73125
1783,37.0,8_56_24_73175
1784,37.0,8_56_24_73209
1785,36.0,8_56_24_73259
1786,35.0,8_56_24_73293
1787,35.0,8_56_24_73326
1788,33.0,8_56_24_73376
1789,33.0,8_56_24_73409
1790,31.0,8_56_24_73460
1791,28.0,8_56_24_73492
1792,30.0,8_56_24_73543
1793,28.0,8_56_24_73576
1794,27.0,8_56_24_73626
1795,28.0,8_56_24_73659
1796,25.0,8_56_25_73692
1797,24.0,8_56_25_73742
1798,22.0,8_56_25_73776
1799,25.0,8_56_25_73809
1800,25.0,8_56_25_73859
1801,25.0,8_56_25_73895
1802,24.0,8_56_25_73942
1803,25.0,8_56_25_73976
1804,25.0,8_56_25_74026
1805,25.0,8_56_25_74059
1806,26.0,8_56_25_74093
1807,27.0,8_56_25_74142
1808,27.0,8_56_25_74176
1809,27.0,8_56_25_74226
1810,28.0,8_56_25_74259
1811,28.0,8_56_25_74309
1812,35.0,8_56_25_74342
1813,29.0,8_56_25_74376
1814,31.0,8_56_25_74425
1815,33.0,8_56_25_74459
1816,34.0,8_56_25_74509
1817,35.0,8_56_25_74542
1818,36.0,8_56_25_74592
1819,38.0,8_56_25_74626
1820,39.0,8_56_25_74660
1821,39.0,8_56_26_74709
1822,40.0,8_56_26_74743
1823,36.0,8_56_26_74793
1824,41.0,8_56_26_74826
1825,39.0,8_56_26_74875
1826,39.0,8_56_26_74909
1827,39.0,8_56_26_74959
1828,38.0,8_56_26_74992
1829,37.0,8_56_26_75026
1830,37.0,8_56_26_75076
1831,36.0,8_56_26_75109
1832,35.0,8_56_26_75159
1833,35.0,8_56_26_75192
1834,33.0,8_56_26_75243
1835,32.0,8_56_26_75276
1836,31.0,8_56_26_75309
1837,29.0,8_56_26_75359
1838,29.0,8_56_26_75393
1839,28.0,8_56_26_75443
1840,27.0,8_56_26_75475
1841,25.0,8_56_26_75509
1842,25.0,8_56_26_75559
1843,24.0,8_56_26_75592
1844,25.0,8_56_26_75643
1845,23.0,8_56_27_75676
1846,24.0,8_56_27_75725
1847,24.0,8_56_27_75759
1848,25.0,8_56_27_75792
